SF_Version 0.9.3
03-Sep-2024 23:12:15 
Temp(K) Pressure(MPa)
 0.9989  0.1000
 0.9990  0.6000
 0.9990  1.1000
 0.9990  1.6000
 0.9990  2.1000
 0.9990  2.6000
 0.9991  3.1000
 0.9991  3.6000
 0.9991  4.1000
 0.9991  4.6000
 0.9991  5.1000
 0.9991  5.6000
 0.9992  6.1000
 0.9992  6.6000
 0.9992  7.1000
 0.9992  7.6000
 0.9992  8.1000
 0.9992  8.6000
 0.9993  9.1000
 0.9993  9.6000
 0.9993 10.1000
 0.9993 10.6000
 0.9993 11.1000
 0.9994 11.6000
 0.9994 12.1000
 0.9994 12.6000
 0.9994 13.1000
 0.9994 13.6000
 0.9994 14.1000
 0.9995 14.6000
 0.9995 15.1000
 0.9995 15.6000
 0.9995 16.1000
 0.9995 16.6000
 0.9996 17.1000
 0.9996 17.6000
 0.9996 18.1000
 0.9996 18.6000
 0.9996 19.1000
 0.9996 19.6000
 0.9997 20.1000
 0.9997 20.6000
 0.9997 21.1000
 0.9997 21.6000
 0.9997 22.1000
 0.9998 22.6000
 0.9998 23.1000
 0.9998 23.6000
 0.9998 24.1000
 0.9998 24.6000
 0.9998 25.1000
 0.9999 25.6000
 0.9999 26.1000
 0.9999 26.6000
 0.9999 27.1000
 0.9999 27.6000
 1.0000 28.1000
 1.0000 28.6000
 1.0000 29.1000
 1.0000 29.1090
 1.1000 29.1922
 1.2000 29.2753
 1.3000 29.3585
 1.4000 29.4416
 1.5000 29.5248
 1.5905 29.6000
 1.6000 29.6079
 1.7000 29.6911
 1.8000 29.7742
 1.9000 29.8574
 2.0000 29.9406
 2.1000 30.0237
 2.1918 30.1000
 2.2000 30.1068
 2.3000 30.1900
 2.4000 30.2731
 2.5000 30.3563
 2.6000 30.4394
 2.7000 30.5225
 2.7932 30.6000
 2.8000 30.6057
 2.9000 30.6888
 3.0000 30.7719
 3.1000 30.8550
 3.2000 30.9381
 3.3000 31.0212
 3.3949 31.1000
 3.4000 31.1042
 3.5000 31.1873
 3.6000 31.2703
 3.7000 31.3534
 3.8000 31.4364
 3.9000 31.5194
 3.9971 31.6000
 4.0000 31.6024
 4.1000 31.6854
 4.2000 31.7683
 4.3000 31.8513
 4.4000 31.9342
 4.5000 32.0171
 4.6000 32.1000
 4.6000 32.1000
 4.7000 32.1828
 4.8000 32.2657
 4.9000 32.3485
 5.0000 32.4313
 5.1000 32.5140
 5.2000 32.5968
 5.2039 32.6000
 5.3000 32.6795
 5.4000 32.7622
 5.5000 32.8448
 5.6000 32.9275
 5.7000 33.0101
 5.8000 33.0926
 5.8089 33.1000
 5.9000 33.1752
 6.0000 33.2577
 6.1000 33.3402
 6.2000 33.4226
 6.3000 33.5050
 6.4000 33.5874
 6.4153 33.6000
 6.5000 33.6697
 6.6000 33.7520
 6.7000 33.8343
 6.8000 33.9166
 6.9000 33.9988
 7.0000 34.0809
 7.0232 34.1000
 7.1000 34.1631
 7.2000 34.2452
 7.3000 34.3272
 7.4000 34.4092
 7.5000 34.4912
 7.6000 34.5732
 7.6327 34.6000
 7.7000 34.6551
 7.8000 34.7370
 7.9000 34.8188
 8.0000 34.9006
 8.1000 34.9824
 8.2000 35.0641
 8.2440 35.1000
 8.3000 35.1458
 8.4000 35.2274
 8.5000 35.3090
 8.6000 35.3906
 8.7000 35.4721
 8.8000 35.5536
 8.8569 35.6000
 8.9000 35.6351
 9.0000 35.7165
 9.1000 35.7979
 9.2000 35.8792
 9.3000 35.9606
 9.4000 36.0418
 9.4716 36.1000
 9.5000 36.1231
 9.6000 36.2043
 9.7000 36.2855
 9.8000 36.3666
 9.9000 36.4477
10.0000 36.5288
10.0879 36.6000
10.1000 36.6098
10.2000 36.6908
10.3000 36.7718
10.4000 36.8527
10.5000 36.9336
10.6000 37.0145
10.7000 37.0953
10.7058 37.1000
10.8000 37.1761
10.9000 37.2569
11.0000 37.3377
11.1000 37.4184
11.2000 37.4991
11.3000 37.5798
11.3251 37.6000
11.4000 37.6604
11.5000 37.7410
11.6000 37.8216
11.7000 37.9022
11.8000 37.9828
11.9000 38.0633
11.9456 38.1000
12.0000 38.1438
12.1000 38.2243
12.2000 38.3047
12.3000 38.3852
12.4000 38.4656
12.5000 38.5460
12.5672 38.6000
12.6000 38.6264
12.7000 38.7068
12.8000 38.7871
12.9000 38.8675
13.0000 38.9478
13.1000 39.0281
13.1895 39.1000
13.2000 39.1084
13.3000 39.1887
13.4000 39.2690
13.5000 39.3492
13.6000 39.4295
13.7000 39.5098
13.8000 39.5900
13.8125 39.6000
13.9000 39.6702
14.0000 39.7505
14.1000 39.8307
14.2000 39.9109
14.3000 39.9912
14.4000 40.0714
14.4357 40.1000
14.5000 40.1516
14.6000 40.2318
14.7000 40.3121
14.8000 40.3923
14.9000 40.4725
15.0000 40.5527
15.0589 40.6000
15.1000 40.6330
15.2000 40.7132
15.3000 40.7934
15.4000 40.8737
15.5000 40.9539
15.6000 41.0342
15.6820 41.1000
15.7000 41.1145
15.8000 41.1948
15.9000 41.2751
16.0000 41.3554
16.1000 41.4357
16.2000 41.5160
16.3000 41.5963
16.3045 41.6000
16.4000 41.6767
16.5000 41.7571
16.6000 41.8375
16.7000 41.9179
16.8000 41.9983
16.9000 42.0787
16.9264 42.1000
17.0000 42.1592
17.1000 42.2397
17.2000 42.3202
17.3000 42.4007
17.4000 42.4812
17.5000 42.5618
17.5474 42.6000
17.6000 42.6424
17.7000 42.7230
17.8000 42.8036
17.9000 42.8843
18.0000 42.9650
18.1000 43.0457
18.1673 43.1000
18.2000 43.1264
18.3000 43.2072
18.4000 43.2880
18.5000 43.3688
18.6000 43.4496
18.7000 43.5305
18.7859 43.6000
18.8000 43.6114
18.9000 43.6924
19.0000 43.7733
19.1000 43.8543
19.2000 43.9354
19.3000 44.0164
19.4000 44.0975
19.4031 44.1000
19.5000 44.1786
19.6000 44.2598
19.7000 44.3410
19.8000 44.4222
19.9000 44.5035
20.0000 44.5848
20.0187 44.6000
20.1000 44.6661
20.2000 44.7475
20.3000 44.8289
20.4000 44.9103
20.5000 44.9918
20.6000 45.0733
20.6327 45.1000
20.7000 45.1549
20.8000 45.2365
20.9000 45.3181
21.0000 45.3998
21.1000 45.4815
21.2000 45.5632
21.2450 45.6000
21.3000 45.6450
21.4000 45.7268
21.5000 45.8087
21.6000 45.8906
21.7000 45.9726
21.8000 46.0545
21.8554 46.1000
21.9000 46.1366
22.0000 46.2186
22.1000 46.3007
22.2000 46.3829
22.3000 46.4651
22.4000 46.5473
22.4641 46.6000
22.5000 46.6295
22.6000 46.7119
22.7000 46.7942
22.8000 46.8766
22.9000 46.9590
23.0000 47.0415
23.0709 47.1000
23.1000 47.1240
23.2000 47.2066
23.3000 47.2892
23.4000 47.3718
23.5000 47.4545
23.6000 47.5372
23.6759 47.6000
23.7000 47.6200
23.8000 47.7028
23.9000 47.7856
24.0000 47.8685
24.1000 47.9515
24.2000 48.0344
24.2790 48.1000
24.3000 48.1175
24.4000 48.2005
24.5000 48.2836
24.6000 48.3668
24.7000 48.4500
24.8000 48.5332
24.8802 48.6000
24.9000 48.6164
25.0000 48.6998
25.1000 48.7831
25.2000 48.8665
25.3000 48.9499
25.4000 49.0334
25.4797 49.1000
25.5000 49.1169
25.6000 49.2005
25.7000 49.2841
25.8000 49.3677
25.9000 49.4514
26.0000 49.5351
26.0775 49.6000
26.1000 49.6189
26.2000 49.7027
26.3000 49.7865
26.4000 49.8704
26.5000 49.9543
26.6000 50.0383
26.6735 50.1000
26.7000 50.1223
26.8000 50.2063
26.9000 50.2904
27.0000 50.3745
27.1000 50.4586
27.2000 50.5428
27.2679 50.6000
27.3000 50.6271
27.4000 50.7113
27.5000 50.7956
27.6000 50.8800
27.7000 50.9643
27.8000 51.0488
27.8607 51.1000
27.9000 51.1332
28.0000 51.2177
28.1000 51.3022
28.2000 51.3868
28.3000 51.4714
28.4000 51.5560
28.4519 51.6000
28.5000 51.6407
28.6000 51.7254
28.7000 51.8102
28.8000 51.8949
28.9000 51.9797
29.0000 52.0646
29.0417 52.1000
29.1000 52.1495
29.2000 52.2344
29.3000 52.3193
29.4000 52.4043
29.5000 52.4893
29.6000 52.5744
29.6301 52.6000
29.7000 52.6595
29.8000 52.7446
29.9000 52.8297
30.0000 52.9149
30.1000 53.0001
30.2000 53.0853
30.2172 53.1000
30.3000 53.1706
30.4000 53.2559
30.5000 53.3412
30.6000 53.4266
30.7000 53.5120
30.8000 53.5974
30.8030 53.6000
30.9000 53.6828
31.0000 53.7683
31.1000 53.8538
31.2000 53.9394
31.3000 54.0249
31.3877 54.1000
31.4000 54.1105
31.5000 54.1961
31.6000 54.2818
31.7000 54.3675
31.8000 54.4532
31.9000 54.5389
31.9713 54.6000
32.0000 54.6246
32.1000 54.7104
32.2000 54.7962
32.3000 54.8820
32.4000 54.9679
32.5000 55.0538
32.5538 55.1000
32.6000 55.1397
32.7000 55.2256
32.8000 55.3115
32.9000 55.3975
33.0000 55.4835
33.1000 55.5695
33.1354 55.6000
33.2000 55.6555
33.3000 55.7416
33.4000 55.8277
33.5000 55.9138
33.6000 55.9999
33.7000 56.0861
33.7162 56.1000
33.8000 56.1722
33.9000 56.2584
34.0000 56.3446
34.1000 56.4308
34.2000 56.5171
34.2961 56.6000
34.3000 56.6033
34.4000 56.6896
34.5000 56.7759
34.6000 56.8623
34.7000 56.9486
34.8000 57.0349
34.8753 57.1000
34.9000 57.1213
35.0000 57.2077
35.1000 57.2941
35.2000 57.3805
35.3000 57.4670
35.4000 57.5534
35.4539 57.6000
35.5000 57.6399
35.6000 57.7264
35.7000 57.8128
35.8000 57.8994
35.9000 57.9859
36.0000 58.0724
36.0319 58.1000
36.1000 58.1590
36.2000 58.2455
36.3000 58.3321
36.4000 58.4187
36.5000 58.5053
36.6000 58.5919
36.6093 58.6000
36.7000 58.6785
36.8000 58.7652
36.9000 58.8518
37.0000 58.9385
37.1000 59.0251
37.1864 59.1000
37.2000 59.1118
37.3000 59.1985
37.4000 59.2852
37.5000 59.3719
37.6000 59.4586
37.7000 59.5453
37.7630 59.6000
37.8000 59.6321
37.9000 59.7188
38.0000 59.8056
38.1000 59.8923
38.2000 59.9791
38.3000 60.0658
38.3394 60.1000
38.4000 60.1526
38.5000 60.2394
38.6000 60.3262
38.7000 60.4130
38.8000 60.4998
38.9000 60.5866
38.9154 60.6000
39.0000 60.6734
39.1000 60.7602
39.2000 60.8470
39.3000 60.9339
39.4000 61.0207
39.4914 61.1000
39.5000 61.1075
39.6000 61.1943
39.7000 61.2812
39.8000 61.3680
39.9000 61.4549
40.0000 61.5417
40.0671 61.6000
40.1000 61.6285
40.2000 61.7154
40.3000 61.8022
40.4000 61.8891
40.5000 61.9759
40.6000 62.0628
40.6429 62.1000
40.7000 62.1496
40.8000 62.2365
40.9000 62.3233
41.0000 62.4102
41.1000 62.4970
41.2000 62.5839
41.2186 62.6000
41.3000 62.6707
41.4000 62.7576
41.5000 62.8444
41.6000 62.9312
41.7000 63.0181
41.7944 63.1000
41.8000 63.1049
41.9000 63.1917
42.0000 63.2786
42.1000 63.3654
42.2000 63.4522
42.3000 63.5390
42.3702 63.6000
42.4000 63.6258
42.5000 63.7127
42.6000 63.7995
42.7000 63.8863
42.8000 63.9731
42.9000 64.0598
42.9463 64.1000
43.0000 64.1466
43.1000 64.2334
43.2000 64.3202
43.3000 64.4069
43.4000 64.4937
43.5000 64.5805
43.5225 64.6000
43.6000 64.6672
43.7000 64.7539
43.8000 64.8407
43.9000 64.9274
44.0000 65.0141
44.0991 65.1000
44.1000 65.1008
44.2000 65.1875
44.3000 65.2742
44.4000 65.3609
44.5000 65.4476
44.6000 65.5342
44.6759 65.6000
44.7000 65.6209
44.8000 65.7075
44.9000 65.7942
45.0000 65.8808
45.1000 65.9674
45.2000 66.0540
45.2531 66.1000
45.3000 66.1406
45.4000 66.2272
45.5000 66.3138
45.6000 66.4003
45.7000 66.4869
45.8000 66.5734
45.8307 66.6000
45.9000 66.6600
46.0000 66.7465
46.1000 66.8330
46.2000 66.9195
46.3000 67.0059
46.4000 67.0924
46.4088 67.1000
46.5000 67.1789
46.6000 67.2653
46.7000 67.3517
46.8000 67.4381
46.9000 67.5245
46.9874 67.6000
47.0000 67.6109
47.1000 67.6973
47.2000 67.7836
47.3000 67.8700
47.4000 67.9563
47.5000 68.0426
47.5665 68.1000
47.6000 68.1289
47.7000 68.2152
47.8000 68.3015
47.9000 68.3877
48.0000 68.4739
48.1000 68.5602
48.1462 68.6000
48.2000 68.6464
48.3000 68.7326
48.4000 68.8187
48.5000 68.9049
48.6000 68.9910
48.7000 69.0771
48.7266 69.1000
48.8000 69.1632
48.9000 69.2493
49.0000 69.3354
49.1000 69.4214
49.2000 69.5075
49.3000 69.5935
49.3076 69.6000
49.4000 69.6795
49.5000 69.7655
49.6000 69.8514
49.7000 69.9374
49.8000 70.0233
49.8893 70.1000
49.9000 70.1092
50.0000 70.1951
50.1000 70.2809
50.2000 70.3668
50.3000 70.4526
50.4000 70.5384
50.4718 70.6000
50.5000 70.6242
50.6000 70.7100
50.7000 70.7957
50.8000 70.8815
50.9000 70.9672
51.0000 71.0529
51.0550 71.1000
51.1000 71.1385
51.2000 71.2242
51.3000 71.3098
51.4000 71.3954
51.5000 71.4810
51.6000 71.5665
51.6391 71.6000
51.7000 71.6521
51.8000 71.7376
51.9000 71.8231
52.0000 71.9086
52.1000 71.9940
52.2000 72.0795
52.2240 72.1000
52.3000 72.1649
52.4000 72.2503
52.5000 72.3356
52.6000 72.4210
52.7000 72.5063
52.8000 72.5916
52.8099 72.6000
52.9000 72.6769
53.0000 72.7621
53.1000 72.8474
53.2000 72.9326
53.3000 73.0177
53.3966 73.1000
53.4000 73.1029
53.5000 73.1880
53.6000 73.2732
53.7000 73.3582
53.8000 73.4433
53.9000 73.5283
53.9843 73.6000
54.0000 73.6134
54.1000 73.6984
54.2000 73.7833
54.3000 73.8683
54.4000 73.9532
54.5000 74.0381
54.5730 74.1000
54.6000 74.1229
54.7000 74.2078
54.8000 74.2926
54.9000 74.3774
55.0000 74.4622
55.1000 74.5469
55.1627 74.6000
55.2000 74.6316
55.3000 74.7163
55.4000 74.8010
55.5000 74.8856
55.6000 74.9703
55.7000 75.0549
55.7534 75.1000
55.8000 75.1394
55.9000 75.2240
56.0000 75.3085
56.1000 75.3930
56.2000 75.4774
56.3000 75.5619
56.3452 75.6000
56.4000 75.6463
56.5000 75.7306
56.6000 75.8150
56.7000 75.8993
56.8000 75.9836
56.9000 76.0679
56.9381 76.1000
57.0000 76.1522
57.1000 76.2364
57.2000 76.3206
57.3000 76.4047
57.4000 76.4889
57.5000 76.5730
57.5321 76.6000
57.6000 76.6571
57.7000 76.7411
57.8000 76.8252
57.9000 76.9092
58.0000 76.9932
58.1000 77.0771
58.1273 77.1000
58.2000 77.1610
58.3000 77.2449
58.4000 77.3288
58.5000 77.4126
58.6000 77.4964
58.7000 77.5802
58.7236 77.6000
58.8000 77.6640
58.9000 77.7477
59.0000 77.8314
59.1000 77.9151
59.2000 77.9987
59.3000 78.0823
59.3212 78.1000
59.4000 78.1659
59.5000 78.2494
59.6000 78.3330
59.7000 78.4165
59.8000 78.4999
59.9000 78.5834
59.9199 78.6000
60.0000 78.6668
60.1000 78.7502
60.2000 78.8335
60.3000 78.9168
60.4000 79.0001
60.5000 79.0834
60.5199 79.1000
60.6000 79.1666
60.7000 79.2499
60.8000 79.3330
60.9000 79.4162
61.0000 79.4993
61.1000 79.5824
61.1212 79.6000
61.2000 79.6655
61.3000 79.7485
61.4000 79.8315
61.5000 79.9145
61.6000 79.9974
61.7000 80.0803
61.7238 80.1000
61.8000 80.1632
61.9000 80.2461
62.0000 80.3289
62.1000 80.4117
62.2000 80.4944
62.3000 80.5772
62.3276 80.6000
62.4000 80.6599
62.5000 80.7426
62.6000 80.8252
62.7000 80.9078
62.8000 80.9904
62.9000 81.0730
62.9328 81.1000
63.0000 81.1555
63.1000 81.2380
63.2000 81.3204
63.3000 81.4029
63.4000 81.4853
63.5000 81.5676
63.5393 81.6000
63.6000 81.6500
63.7000 81.7323
63.8000 81.8146
63.9000 81.8968
64.0000 81.9791
64.1000 82.0613
64.1472 82.1000
64.2000 82.1434
64.3000 82.2256
64.4000 82.3077
64.5000 82.3897
64.6000 82.4718
64.7000 82.5538
64.7564 82.6000
64.8000 82.6357
64.9000 82.7177
65.0000 82.7996
65.1000 82.8815
65.2000 82.9634
65.3000 83.0452
65.3670 83.1000
65.4000 83.1270
65.5000 83.2087
65.6000 83.2905
65.7000 83.3722
65.8000 83.4538
65.9000 83.5355
65.9791 83.6000
66.0000 83.6171
66.1000 83.6987
66.2000 83.7802
66.3000 83.8617
66.4000 83.9432
66.5000 84.0247
66.5925 84.1000
66.6000 84.1061
66.7000 84.1875
66.8000 84.2689
66.9000 84.3502
67.0000 84.4315
67.1000 84.5128
67.2000 84.5940
67.2074 84.6000
67.3000 84.6752
67.4000 84.7564
67.5000 84.8375
67.6000 84.9187
67.7000 84.9997
67.8000 85.0808
67.8237 85.1000
67.9000 85.1618
68.0000 85.2428
68.1000 85.3238
68.2000 85.4047
68.3000 85.4856
68.4000 85.5665
68.4415 85.6000
68.5000 85.6473
68.6000 85.7281
68.7000 85.8089
68.8000 85.8896
68.9000 85.9703
69.0000 86.0510
69.0607 86.1000
69.1000 86.1317
69.2000 86.2123
69.3000 86.2929
69.4000 86.3735
69.5000 86.4540
69.6000 86.5345
69.6814 86.6000
69.7000 86.6149
69.8000 86.6954
69.9000 86.7758
70.0000 86.8562
70.1000 86.9365
70.2000 87.0168
70.3000 87.0971
70.3036 87.1000
70.4000 87.1773
70.5000 87.2576
70.6000 87.3377
70.7000 87.4179
70.8000 87.4980
70.9000 87.5781
70.9273 87.6000
71.0000 87.6582
71.1000 87.7382
71.2000 87.8182
71.3000 87.8982
71.4000 87.9781
71.5000 88.0580
71.5525 88.1000
71.6000 88.1379
71.7000 88.2178
71.8000 88.2976
71.9000 88.3774
72.0000 88.4571
72.1000 88.5369
72.1792 88.6000
72.2000 88.6165
72.3000 88.6962
72.4000 88.7758
72.5000 88.8555
72.6000 88.9350
72.7000 89.0146
72.8000 89.0941
72.8075 89.1000
72.9000 89.1736
73.0000 89.2530
73.1000 89.3324
73.2000 89.4118
73.3000 89.4912
73.4000 89.5705
73.4372 89.6000
73.5000 89.6498
73.6000 89.7291
73.7000 89.8083
73.8000 89.8875
73.9000 89.9667
74.0000 90.0458
74.0685 90.1000
74.1000 90.1249
74.2000 90.2040
74.3000 90.2831
74.4000 90.3621
74.5000 90.4411
74.6000 90.5201
74.7000 90.5990
74.7013 90.6000
74.8000 90.6779
74.9000 90.7568
75.0000 90.8356
75.1000 90.9144
75.2000 90.9932
75.3000 91.0720
75.3356 91.1000
75.4000 91.1507
75.5000 91.2294
75.6000 91.3081
75.7000 91.3867
75.8000 91.4653
75.9000 91.5439
75.9715 91.6000
76.0000 91.6224
76.1000 91.7009
76.2000 91.7794
76.3000 91.8579
76.4000 91.9363
76.5000 92.0147
76.6000 92.0930
76.6089 92.1000
76.7000 92.1714
76.8000 92.2497
76.9000 92.3280
77.0000 92.4062
77.1000 92.4844
77.2000 92.5626
77.2479 92.6000
77.3000 92.6408
77.4000 92.7189
77.5000 92.7970
77.6000 92.8751
77.7000 92.9531
77.8000 93.0311
77.8883 93.1000
77.9000 93.1091
78.0000 93.1870
78.1000 93.2650
78.2000 93.3429
78.3000 93.4207
78.4000 93.4986
78.5000 93.5764
78.5304 93.6000
78.6000 93.6541
78.7000 93.7319
78.8000 93.8096
78.9000 93.8873
79.0000 93.9650
79.1000 94.0426
79.1740 94.1000
79.2000 94.1202
79.3000 94.1978
79.4000 94.2753
79.5000 94.3528
79.6000 94.4303
79.7000 94.5078
79.8000 94.5852
79.8191 94.6000
79.9000 94.6626
80.0000 94.7400
80.1000 94.8174
80.2000 94.8947
80.3000 94.9720
80.4000 95.0492
80.4658 95.1000
80.5000 95.1265
80.6000 95.2037
80.7000 95.2808
80.8000 95.3580
80.9000 95.4351
81.0000 95.5122
81.1000 95.5893
81.1140 95.6000
81.2000 95.6663
81.3000 95.7433
81.4000 95.8203
81.5000 95.8972
81.6000 95.9742
81.7000 96.0510
81.7637 96.1000
81.8000 96.1279
81.9000 96.2048
82.0000 96.2816
82.1000 96.3584
82.2000 96.4351
82.3000 96.5118
82.4000 96.5885
82.4149 96.6000
82.5000 96.6652
82.6000 96.7419
82.7000 96.8185
82.8000 96.8951
82.9000 96.9716
83.0000 97.0482
83.0677 97.1000
83.1000 97.1247
83.2000 97.2012
83.3000 97.2776
83.4000 97.3541
83.5000 97.4305
83.6000 97.5068
83.7000 97.5832
83.7220 97.6000
83.8000 97.6595
83.9000 97.7358
84.0000 97.8121
84.1000 97.8883
84.2000 97.9645
84.3000 98.0407
84.3779 98.1000
84.4000 98.1169
84.5000 98.1930
84.6000 98.2691
84.7000 98.3452
84.8000 98.4212
84.9000 98.4973
85.0000 98.5733
85.0352 98.6000
85.1000 98.6492
85.2000 98.7252
85.3000 98.8011
85.4000 98.8770
85.5000 98.9529
85.6000 99.0287
85.6940 99.1000
85.7000 99.1045
85.8000 99.1803
85.9000 99.2561
86.0000 99.3318
86.1000 99.4075
86.2000 99.4832
86.3000 99.5589
86.3544 99.6000
86.4000 99.6345
86.5000 99.7101
86.6000 99.7857
86.7000 99.8613
86.8000 99.9368
86.9000 100.0123
87.0000 100.0878
87.0162 100.1000
87.1000 100.1632
87.2000 100.2387
87.3000 100.3141
87.4000 100.3894
87.5000 100.4648
87.6000 100.5401
87.6795 100.6000
87.7000 100.6154
87.8000 100.6907
87.9000 100.7660
88.0000 100.8412
88.1000 100.9164
88.2000 100.9916
88.3000 101.0667
88.3443 101.1000
88.4000 101.1419
88.5000 101.2170
88.6000 101.2920
88.7000 101.3671
88.8000 101.4421
88.9000 101.5171
89.0000 101.5921
89.0105 101.6000
89.1000 101.6671
89.2000 101.7420
89.3000 101.8169
89.4000 101.8918
89.5000 101.9667
89.6000 102.0415
89.6782 102.1000
89.7000 102.1163
89.8000 102.1911
89.9000 102.2658
90.0000 102.3406
90.1000 102.4153
90.2000 102.4900
90.3000 102.5647
90.3474 102.6000
90.4000 102.6393
90.5000 102.7139
90.6000 102.7885
90.7000 102.8631
90.8000 102.9376
90.9000 103.0122
91.0000 103.0867
91.0179 103.1000
91.1000 103.1611
91.2000 103.2356
91.3000 103.3100
91.4000 103.3844
91.5000 103.4588
91.6000 103.5332
91.6899 103.6000
91.7000 103.6075
91.8000 103.6818
91.9000 103.7561
92.0000 103.8304
92.1000 103.9046
92.2000 103.9789
92.3000 104.0531
92.3633 104.1000
92.4000 104.1272
92.5000 104.2014
92.6000 104.2755
92.7000 104.3496
92.8000 104.4237
92.9000 104.4978
93.0000 104.5718
93.0381 104.6000
93.1000 104.6458
93.2000 104.7198
93.3000 104.7938
93.4000 104.8678
93.5000 104.9417
93.6000 105.0156
93.7000 105.0895
93.7143 105.1000
93.8000 105.1633
93.9000 105.2372
94.0000 105.3110
94.1000 105.3848
94.2000 105.4586
94.3000 105.5323
94.3918 105.6000
94.4000 105.6060
94.5000 105.6798
94.6000 105.7534
94.7000 105.8271
94.8000 105.9008
94.9000 105.9744
95.0000 106.0480
95.0707 106.1000
95.1000 106.1216
95.2000 106.1951
95.3000 106.2687
95.4000 106.3422
95.5000 106.4157
95.6000 106.4891
95.7000 106.5626
95.7510 106.6000
95.8000 106.6360
95.9000 106.7094
96.0000 106.7828
96.1000 106.8562
96.2000 106.9295
96.3000 107.0029
96.4000 107.0762
96.4325 107.1000
96.5000 107.1494
96.6000 107.2227
96.7000 107.2960
96.8000 107.3692
96.9000 107.4424
97.0000 107.5156
97.1000 107.5887
97.1154 107.6000
97.2000 107.6619
97.3000 107.7350
97.4000 107.8081
97.5000 107.8812
97.6000 107.9542
97.7000 108.0273
97.7996 108.1000
97.8000 108.1003
97.9000 108.1733
98.0000 108.2463
98.1000 108.3192
98.2000 108.3922
98.3000 108.4651
98.4000 108.5380
98.4851 108.6000
98.5000 108.6109
98.6000 108.6837
98.7000 108.7566
98.8000 108.8294
98.9000 108.9022
99.0000 108.9750
99.1000 109.0477
99.1718 109.1000
99.2000 109.1205
99.3000 109.1932
99.4000 109.2659
99.5000 109.3386
99.6000 109.4113
99.7000 109.4839
99.8000 109.5565
99.8598 109.6000
99.9000 109.6292
100.0000 109.7018
100.1000 109.7743
100.2000 109.8469
100.3000 109.9194
100.4000 109.9919
100.5000 110.0644
100.5491 110.1000
100.6000 110.1369
100.7000 110.2094
100.8000 110.2818
100.9000 110.3542
101.0000 110.4266
101.1000 110.4990
101.2000 110.5714
101.2395 110.6000
101.3000 110.6437
101.4000 110.7161
101.5000 110.7884
101.6000 110.8607
101.7000 110.9330
101.8000 111.0052
101.9000 111.0775
101.9312 111.1000
102.0000 111.1497
102.1000 111.2219
102.2000 111.2941
102.3000 111.3663
102.4000 111.4384
102.5000 111.5105
102.6000 111.5827
102.6241 111.6000
102.7000 111.6548
102.8000 111.7268
102.9000 111.7989
103.0000 111.8709
103.1000 111.9430
103.2000 112.0150
103.3000 112.0870
103.3181 112.1000
103.4000 112.1590
103.5000 112.2309
103.6000 112.3029
103.7000 112.3748
103.8000 112.4467
103.9000 112.5186
104.0000 112.5905
104.0133 112.6000
104.1000 112.6623
104.2000 112.7342
104.3000 112.8060
104.4000 112.8778
104.5000 112.9496
104.6000 113.0214
104.7000 113.0931
104.7096 113.1000
104.8000 113.1649
104.9000 113.2366
105.0000 113.3083
105.1000 113.3800
105.2000 113.4517
105.3000 113.5233
105.4000 113.5950
105.4070 113.6000
105.5000 113.6666
105.6000 113.7382
105.7000 113.8098
105.8000 113.8814
105.9000 113.9530
106.0000 114.0245
106.1000 114.0960
106.1055 114.1000
106.2000 114.1676
106.3000 114.2391
106.4000 114.3106
106.5000 114.3820
106.6000 114.4535
106.7000 114.5249
106.8000 114.5963
106.8051 114.6000
106.9000 114.6677
107.0000 114.7391
107.1000 114.8105
107.2000 114.8819
107.3000 114.9532
107.4000 115.0245
107.5000 115.0959
107.5058 115.1000
107.6000 115.1672
107.7000 115.2385
107.8000 115.3097
107.9000 115.3810
108.0000 115.4522
108.1000 115.5234
108.2000 115.5947
108.2075 115.6000
108.3000 115.6658
108.4000 115.7370
108.5000 115.8082
108.6000 115.8794
108.7000 115.9505
108.8000 116.0216
108.9000 116.0927
108.9102 116.1000
109.0000 116.1638
109.1000 116.2349
109.2000 116.3060
109.3000 116.3770
109.4000 116.4480
109.5000 116.5191
109.6000 116.5901
109.6140 116.6000
109.7000 116.6611
109.8000 116.7320
109.9000 116.8030
110.0000 116.8740
110.1000 116.9449
110.2000 117.0158
110.3000 117.0867
110.3187 117.1000
110.4000 117.1576
110.5000 117.2285
110.6000 117.2994
110.7000 117.3702
110.8000 117.4411
110.9000 117.5119
111.0000 117.5827
111.0244 117.6000
111.1000 117.6535
111.2000 117.7243
111.3000 117.7951
111.4000 117.8659
111.5000 117.9366
111.6000 118.0073
111.7000 118.0781
111.7310 118.1000
111.8000 118.1488
111.9000 118.2195
112.0000 118.2902
112.1000 118.3608
112.2000 118.4315
112.3000 118.5021
112.4000 118.5728
112.4386 118.6000
112.5000 118.6434
112.6000 118.7140
112.7000 118.7846
112.8000 118.8552
112.9000 118.9257
113.0000 118.9963
113.1000 119.0668
113.1471 119.1000
113.2000 119.1373
113.3000 119.2079
113.4000 119.2784
113.5000 119.3489
113.6000 119.4193
113.7000 119.4898
113.8000 119.5603
113.8564 119.6000
113.9000 119.6307
114.0000 119.7011
114.1000 119.7716
114.2000 119.8420
114.3000 119.9124
114.4000 119.9828
114.5000 120.0531
114.5666 120.1000
114.6000 120.1235
114.7000 120.1938
114.8000 120.2642
114.9000 120.3345
115.0000 120.4048
115.1000 120.4751
115.2000 120.5454
115.2777 120.6000
115.3000 120.6157
115.4000 120.6860
115.5000 120.7562
115.6000 120.8265
115.7000 120.8967
115.8000 120.9669
115.9000 121.0371
115.9896 121.1000
116.0000 121.1073
116.1000 121.1775
116.2000 121.2477
116.3000 121.3179
116.4000 121.3880
116.5000 121.4582
116.6000 121.5283
116.7000 121.5984
116.7023 121.6000
116.8000 121.6685
116.9000 121.7386
117.0000 121.8087
117.1000 121.8788
117.2000 121.9489
117.3000 122.0189
117.4000 122.0890
117.4157 122.1000
117.5000 122.1590
117.6000 122.2290
117.7000 122.2991
117.8000 122.3691
117.9000 122.4391
118.0000 122.5091
118.1000 122.5790
118.1300 122.6000
118.2000 122.6490
118.3000 122.7190
118.4000 122.7889
118.5000 122.8588
118.6000 122.9288
118.7000 122.9987
118.8000 123.0686
118.8450 123.1000
118.9000 123.1385
119.0000 123.2084
119.1000 123.2782
119.2000 123.3481
119.3000 123.4180
119.4000 123.4878
119.5000 123.5576
119.5607 123.6000
119.6000 123.6275
119.7000 123.6973
119.8000 123.7671
119.9000 123.8369
120.0000 123.9067
120.1000 123.9765
120.2000 124.0462
120.2771 124.1000
120.3000 124.1160
120.4000 124.1857
120.5000 124.2555
120.6000 124.3252
120.7000 124.3950
120.8000 124.4647
120.9000 124.5344
120.9942 124.6000
121.0000 124.6041
121.1000 124.6738
121.2000 124.7434
121.3000 124.8131
121.4000 124.8828
121.5000 124.9524
121.6000 125.0221
121.7000 125.0917
121.7119 125.1000
121.8000 125.1613
121.9000 125.2310
122.0000 125.3006
122.1000 125.3702
122.2000 125.4398
122.3000 125.5093
122.4000 125.5789
122.4303 125.6000
122.5000 125.6485
122.6000 125.7180
122.7000 125.7876
122.8000 125.8571
122.9000 125.9267
123.0000 125.9962
123.1000 126.0657
123.1493 126.1000
123.2000 126.1352
123.3000 126.2047
123.4000 126.2742
123.5000 126.3437
123.6000 126.4132
123.7000 126.4827
123.8000 126.5521
123.8689 126.6000
123.9000 126.6216
124.0000 126.6910
124.1000 126.7605
124.2000 126.8299
124.3000 126.8993
124.4000 126.9688
124.5000 127.0382
124.5891 127.1000
124.6000 127.1076
124.7000 127.1770
124.8000 127.2463
124.9000 127.3157
125.0000 127.3851
125.1000 127.4545
125.2000 127.5238
125.3000 127.5932
125.3098 127.6000
125.4000 127.6625
125.5000 127.7319
125.6000 127.8012
125.7000 127.8705
125.8000 127.9398
125.9000 128.0091
126.0000 128.0784
126.0311 128.1000
126.1000 128.1477
126.2000 128.2170
126.3000 128.2863
126.4000 128.3556
126.5000 128.4248
126.6000 128.4941
126.7000 128.5634
126.7529 128.6000
126.8000 128.6326
126.9000 128.7019
127.0000 128.7711
127.1000 128.8403
127.2000 128.9095
127.3000 128.9788
127.4000 129.0480
127.4752 129.1000
127.5000 129.1172
127.6000 129.1864
127.7000 129.2556
127.8000 129.3247
127.9000 129.3939
128.0000 129.4631
128.1000 129.5323
128.1980 129.6000
128.2000 129.6014
128.3000 129.6706
128.4000 129.7397
128.5000 129.8089
128.6000 129.8780
128.7000 129.9471
128.8000 130.0163
128.9000 130.0854
128.9212 130.1000
129.0000 130.1545
129.1000 130.2236
129.2000 130.2927
129.3000 130.3618
129.4000 130.4309
129.5000 130.5000
129.6000 130.5690
129.6448 130.6000
129.7000 130.6381
129.8000 130.7072
129.9000 130.7763
130.0000 130.8453
130.1000 130.9144
130.2000 130.9834
130.3000 131.0525
130.3689 131.1000
130.4000 131.1215
130.5000 131.1905
130.6000 131.2596
130.7000 131.3286
130.8000 131.3976
130.9000 131.4666
131.0000 131.5356
131.0933 131.6000
131.1000 131.6046
131.2000 131.6736
131.3000 131.7426
131.4000 131.8116
131.5000 131.8806
131.6000 131.9496
131.7000 132.0185
131.8000 132.0875
131.8181 132.1000
131.9000 132.1565
132.0000 132.2254
132.1000 132.2944
132.2000 132.3633
132.3000 132.4323
132.4000 132.5012
132.5000 132.5702
132.5433 132.6000
132.6000 132.6391
132.7000 132.7080
132.8000 132.7770
132.9000 132.8459
133.0000 132.9148
133.1000 132.9837
133.2000 133.0526
133.2688 133.1000
133.3000 133.1215
133.4000 133.1904
133.5000 133.2593
133.6000 133.3282
133.7000 133.3971
133.8000 133.4660
133.9000 133.5349
133.9946 133.6000
134.0000 133.6038
134.1000 133.6726
134.2000 133.7415
134.3000 133.8104
134.4000 133.8792
134.5000 133.9481
134.6000 134.0169
134.7000 134.0858
134.7206 134.1000
134.8000 134.1546
134.9000 134.2235
135.0000 134.2923
135.1000 134.3612
135.2000 134.4300
135.3000 134.4988
135.4000 134.5677
135.4470 134.6000
135.5000 134.6365
135.6000 134.7053
135.7000 134.7741
135.8000 134.8430
135.9000 134.9118
136.0000 134.9806
136.1000 135.0494
136.1736 135.1000
136.2000 135.1182
136.3000 135.1870
136.4000 135.2558
136.5000 135.3246
136.6000 135.3934
136.7000 135.4622
136.8000 135.5310
136.9000 135.5997
136.9004 135.6000
137.0000 135.6685
137.1000 135.7373
137.2000 135.8061
137.3000 135.8749
137.4000 135.9436
137.5000 136.0124
137.6000 136.0812
137.6274 136.1000
137.7000 136.1499
137.8000 136.2187
137.9000 136.2875
138.0000 136.3562
138.1000 136.4250
138.2000 136.4937
138.3000 136.5625
138.3546 136.6000
138.4000 136.6312
138.5000 136.7000
138.6000 136.7687
138.7000 136.8375
138.8000 136.9062
138.9000 136.9749
139.0000 137.0437
139.0820 137.1000
139.1000 137.1124
139.2000 137.1811
139.3000 137.2499
139.4000 137.3186
139.5000 137.3873
139.6000 137.4561
139.7000 137.5248
139.8000 137.5935
139.8095 137.6000
139.9000 137.6622
140.0000 137.7309
140.1000 137.7997
140.2000 137.8684
140.3000 137.9371
140.4000 138.0058
140.5000 138.0745
140.5371 138.1000
140.6000 138.1432
140.7000 138.2119
140.8000 138.2807
140.9000 138.3494
141.0000 138.4181
141.1000 138.4868
141.2000 138.5555
141.2648 138.6000
141.3000 138.6242
141.4000 138.6929
141.5000 138.7616
141.6000 138.8303
141.7000 138.8990
141.8000 138.9677
141.9000 139.0364
141.9926 139.1000
142.0000 139.1051
142.1000 139.1738
142.2000 139.2425
142.3000 139.3112
142.4000 139.3799
142.5000 139.4485
142.6000 139.5172
142.7000 139.5859
142.7205 139.6000
142.8000 139.6546
142.9000 139.7233
143.0000 139.7920
143.1000 139.8607
143.2000 139.9294
143.3000 139.9981
143.4000 140.0668
143.4484 140.1000
143.5000 140.1354
143.6000 140.2041
143.7000 140.2728
143.8000 140.3415
143.9000 140.4102
144.0000 140.4789
144.1000 140.5476
144.1763 140.6000
144.2000 140.6163
144.3000 140.6850
144.4000 140.7536
144.5000 140.8223
144.6000 140.8910
144.7000 140.9597
144.8000 141.0284
144.9000 141.0971
144.9043 141.1000
145.0000 141.1658
145.1000 141.2345
145.2000 141.3031
145.3000 141.3718
145.4000 141.4405
145.5000 141.5092
145.6000 141.5779
145.6322 141.6000
145.7000 141.6466
145.8000 141.7153
145.9000 141.7840
146.0000 141.8527
146.1000 141.9214
146.2000 141.9901
146.3000 142.0588
146.3600 142.1000
146.4000 142.1275
146.5000 142.1962
146.6000 142.2648
146.7000 142.3335
146.8000 142.4022
146.9000 142.4709
147.0000 142.5396
147.0879 142.6000
147.1000 142.6083
147.2000 142.6771
147.3000 142.7458
147.4000 142.8145
147.5000 142.8832
147.6000 142.9519
147.7000 143.0206
147.8000 143.0893
147.8156 143.1000
147.9000 143.1580
148.0000 143.2267
148.1000 143.2954
148.2000 143.3641
148.3000 143.4329
148.4000 143.5016
148.5000 143.5703
148.5432 143.6000
148.6000 143.6390
148.7000 143.7077
148.8000 143.7765
148.9000 143.8452
149.0000 143.9139
149.1000 143.9826
149.2000 144.0514
149.2707 144.1000
149.3000 144.1201
149.4000 144.1888
149.5000 144.2576
149.6000 144.3263
149.7000 144.3951
149.8000 144.4638
149.9000 144.5325
149.9981 144.6000
150.0000 144.6013
150.1000 144.6700
150.2000 144.7388
150.3000 144.8075
150.4000 144.8763
150.5000 144.9451
150.6000 145.0138
150.7000 145.0826
150.7254 145.1000
150.8000 145.1513
150.9000 145.2201
151.0000 145.2889
151.1000 145.3576
151.2000 145.4264
151.3000 145.4952
151.4000 145.5640
151.4524 145.6000
151.5000 145.6327
151.6000 145.7015
151.7000 145.7703
151.8000 145.8391
151.9000 145.9079
152.0000 145.9767
152.1000 146.0455
152.1793 146.1000
152.2000 146.1143
152.3000 146.1831
152.4000 146.2519
152.5000 146.3207
152.6000 146.3895
152.7000 146.4583
152.8000 146.5271
152.9000 146.5959
152.9059 146.6000
153.0000 146.6648
153.1000 146.7336
153.2000 146.8024
153.3000 146.8712
153.4000 146.9401
153.5000 147.0089
153.6000 147.0778
153.6323 147.1000
153.7000 147.1466
153.8000 147.2154
153.9000 147.2843
154.0000 147.3532
154.1000 147.4220
154.2000 147.4909
154.3000 147.5597
154.3585 147.6000
154.4000 147.6286
154.5000 147.6975
154.6000 147.7664
154.7000 147.8352
154.8000 147.9041
154.9000 147.9730
155.0000 148.0419
155.0844 148.1000
155.1000 148.1108
155.2000 148.1797
155.3000 148.2486
155.4000 148.3175
155.5000 148.3864
155.6000 148.4553
155.7000 148.5242
155.8000 148.5931
155.8100 148.6000
155.9000 148.6621
156.0000 148.7310
156.1000 148.7999
156.2000 148.8689
156.3000 148.9378
156.4000 149.0067
156.5000 149.0757
156.5352 149.1000
156.6000 149.1446
156.7000 149.2136
156.8000 149.2826
156.9000 149.3515
157.0000 149.4205
157.1000 149.4895
157.2000 149.5585
157.2602 149.6000
157.3000 149.6274
157.4000 149.6964
157.5000 149.7654
157.6000 149.8344
157.7000 149.9034
157.8000 149.9724
157.9000 150.0414
157.9848 150.1000
158.0000 150.1105
158.1000 150.1795
158.2000 150.2485
158.3000 150.3175
158.4000 150.3866
158.5000 150.4556
158.6000 150.5247
158.7000 150.5937
158.7091 150.6000
158.8000 150.6628
158.9000 150.7318
159.0000 150.8009
159.1000 150.8700
159.2000 150.9391
159.3000 151.0081
159.4000 151.0772
159.4330 151.1000
159.5000 151.1463
159.6000 151.2154
159.7000 151.2845
159.8000 151.3536
159.9000 151.4227
160.0000 151.4919
160.1000 151.5610
160.1565 151.6000
160.2000 151.6301
160.3000 151.6992
160.4000 151.7684
160.5000 151.8375
160.6000 151.9067
160.7000 151.9758
160.8000 152.0450
160.8795 152.1000
160.9000 152.1142
161.0000 152.1833
161.1000 152.2525
161.2000 152.3217
161.3000 152.3909
161.4000 152.4601
161.5000 152.5293
161.6000 152.5985
161.6022 152.6000
161.7000 152.6677
161.8000 152.7369
161.9000 152.8062
162.0000 152.8754
162.1000 152.9447
162.2000 153.0139
162.3000 153.0831
162.3243 153.1000
162.4000 153.1524
162.5000 153.2217
162.6000 153.2909
162.7000 153.3602
162.8000 153.4295
162.9000 153.4988
163.0000 153.5681
163.0460 153.6000
163.1000 153.6374
163.2000 153.7067
163.3000 153.7760
163.4000 153.8453
163.5000 153.9147
163.6000 153.9840
163.7000 154.0533
163.7673 154.1000
163.8000 154.1227
163.9000 154.1921
164.0000 154.2614
164.1000 154.3308
164.2000 154.4002
164.3000 154.4695
164.4000 154.5389
164.4880 154.6000
164.5000 154.6083
164.6000 154.6777
164.7000 154.7471
164.8000 154.8166
164.9000 154.8860
165.0000 154.9554
165.1000 155.0249
165.2000 155.0943
165.2082 155.1000
165.3000 155.1638
165.4000 155.2332
165.5000 155.3027
165.6000 155.3722
165.7000 155.4416
165.8000 155.5111
165.9000 155.5806
165.9279 155.6000
166.0000 155.6501
166.1000 155.7196
166.2000 155.7892
166.3000 155.8587
166.4000 155.9282
166.5000 155.9978
166.6000 156.0673
166.6470 156.1000
166.7000 156.1369
166.8000 156.2064
166.9000 156.2760
167.0000 156.3456
167.1000 156.4152
167.2000 156.4848
167.3000 156.5544
167.3655 156.6000
167.4000 156.6240
167.5000 156.6936
167.6000 156.7632
167.7000 156.8329
167.8000 156.9025
167.9000 156.9722
168.0000 157.0418
168.0835 157.1000
168.1000 157.1115
168.2000 157.1812
168.3000 157.2509
168.4000 157.3206
168.5000 157.3903
168.6000 157.4600
168.7000 157.5297
168.8000 157.5994
168.8008 157.6000
168.9000 157.6691
169.0000 157.7389
169.1000 157.8086
169.2000 157.8784
169.3000 157.9482
169.4000 158.0179
169.5000 158.0877
169.5176 158.1000
169.6000 158.1575
169.7000 158.2273
169.8000 158.2971
169.9000 158.3670
170.0000 158.4368
170.1000 158.5066
170.2000 158.5765
170.2337 158.6000
170.3000 158.6463
170.4000 158.7162
170.5000 158.7861
170.6000 158.8560
170.7000 158.9258
170.8000 158.9957
170.9000 159.0656
170.9491 159.1000
171.0000 159.1356
171.1000 159.2055
171.2000 159.2754
171.3000 159.3454
171.4000 159.4153
171.5000 159.4853
171.6000 159.5553
171.6639 159.6000
171.7000 159.6253
171.8000 159.6952
171.9000 159.7653
172.0000 159.8353
172.1000 159.9053
172.2000 159.9753
172.3000 160.0453
172.3780 160.1000
172.4000 160.1154
172.5000 160.1855
172.6000 160.2555
172.7000 160.3256
172.8000 160.3957
172.9000 160.4658
173.0000 160.5359
173.0914 160.6000
173.1000 160.6060
173.2000 160.6761
173.3000 160.7463
173.4000 160.8164
173.5000 160.8866
173.6000 160.9567
173.7000 161.0269
173.8000 161.0971
173.8041 161.1000
173.9000 161.1673
174.0000 161.2375
174.1000 161.3077
174.2000 161.3780
174.3000 161.4482
174.4000 161.5184
174.5000 161.5887
174.5161 161.6000
174.6000 161.6590
174.7000 161.7292
174.8000 161.7995
174.9000 161.8698
175.0000 161.9401
175.1000 162.0105
175.2000 162.0808
175.2273 162.1000
175.3000 162.1511
175.4000 162.2215
175.5000 162.2918
175.6000 162.3622
175.7000 162.4326
175.8000 162.5030
175.9000 162.5734
175.9378 162.6000
176.0000 162.6438
176.1000 162.7142
176.2000 162.7847
176.3000 162.8551
176.4000 162.9256
176.5000 162.9960
176.6000 163.0665
176.6475 163.1000
176.7000 163.1370
176.8000 163.2075
176.9000 163.2780
177.0000 163.3486
177.1000 163.4191
177.2000 163.4896
177.3000 163.5602
177.3564 163.6000
177.4000 163.6308
177.5000 163.7013
177.6000 163.7719
177.7000 163.8425
177.8000 163.9132
177.9000 163.9838
178.0000 164.0544
178.0645 164.1000
178.1000 164.1251
178.2000 164.1957
178.3000 164.2664
178.4000 164.3371
178.5000 164.4078
178.6000 164.4785
178.7000 164.5492
178.7718 164.6000
178.8000 164.6199
178.9000 164.6907
179.0000 164.7614
179.1000 164.8322
179.2000 164.9030
179.3000 164.9738
179.4000 165.0445
179.4783 165.1000
179.5000 165.1154
179.6000 165.1862
179.7000 165.2570
179.8000 165.3279
179.9000 165.3987
180.0000 165.4696
180.1000 165.5405
180.1839 165.6000
180.2000 165.6114
180.3000 165.6823
180.4000 165.7532
180.5000 165.8241
180.6000 165.8951
180.7000 165.9660
180.8000 166.0370
180.8887 166.1000
180.9000 166.1080
181.0000 166.1790
181.1000 166.2500
181.2000 166.3210
181.3000 166.3921
181.4000 166.4631
181.5000 166.5342
181.5927 166.6000
181.6000 166.6052
181.7000 166.6763
181.8000 166.7474
181.9000 166.8185
182.0000 166.8896
182.1000 166.9608
182.2000 167.0319
182.2957 167.1000
182.3000 167.1031
182.4000 167.1742
182.5000 167.2454
182.6000 167.3166
182.7000 167.3878
182.8000 167.4591
182.9000 167.5303
182.9978 167.6000
183.0000 167.6015
183.1000 167.6728
183.2000 167.7441
183.3000 167.8154
183.4000 167.8867
183.5000 167.9580
183.6000 168.0293
183.6991 168.1000
183.7000 168.1007
183.8000 168.1720
183.9000 168.2434
184.0000 168.3148
184.1000 168.3862
184.2000 168.4576
184.3000 168.5290
184.3994 168.6000
184.4000 168.6004
184.5000 168.6719
184.6000 168.7433
184.7000 168.8148
184.8000 168.8863
184.9000 168.9578
185.0000 169.0293
185.0988 169.1000
185.1000 169.1009
185.2000 169.1724
185.3000 169.2440
185.4000 169.3155
185.5000 169.3871
185.6000 169.4587
185.7000 169.5303
185.7973 169.6000
185.8000 169.6020
185.9000 169.6736
186.0000 169.7453
186.1000 169.8169
186.2000 169.8886
186.3000 169.9603
186.4000 170.0320
186.4948 170.1000
186.5000 170.1038
186.6000 170.1755
186.7000 170.2473
186.8000 170.3190
186.9000 170.3908
187.0000 170.4626
187.1000 170.5344
187.1913 170.6000
187.2000 170.6063
187.3000 170.6781
187.4000 170.7500
187.5000 170.8218
187.6000 170.8937
187.7000 170.9656
187.8000 171.0375
187.8869 171.1000
187.9000 171.1095
188.0000 171.1814
188.1000 171.2534
188.2000 171.3253
188.3000 171.3973
188.4000 171.4693
188.5000 171.5413
188.5814 171.6000
188.6000 171.6134
188.7000 171.6854
188.8000 171.7575
188.9000 171.8296
189.0000 171.9017
189.1000 171.9738
189.2000 172.0459
189.2750 172.1000
189.3000 172.1180
189.4000 172.1902
189.5000 172.2624
189.6000 172.3345
189.7000 172.4067
189.8000 172.4790
189.9000 172.5512
189.9676 172.6000
190.0000 172.6234
190.1000 172.6957
190.2000 172.7680
190.3000 172.8403
190.4000 172.9126
190.5000 172.9849
190.6000 173.0572
190.6591 173.1000
190.7000 173.1296
190.8000 173.2020
190.9000 173.2743
191.0000 173.3467
191.1000 173.4192
191.2000 173.4916
191.3000 173.5640
191.3496 173.6000
191.4000 173.6365
191.5000 173.7090
191.6000 173.7815
191.7000 173.8540
191.8000 173.9265
191.9000 173.9991
192.0000 174.0716
192.0391 174.1000
192.1000 174.1442
192.2000 174.2168
192.3000 174.2894
192.4000 174.3620
192.5000 174.4347
192.6000 174.5073
192.7000 174.5800
192.7275 174.6000
192.8000 174.6527
192.9000 174.7254
193.0000 174.7981
193.1000 174.8709
193.2000 174.9436
193.3000 175.0164
193.4000 175.0892
193.4149 175.1000
193.5000 175.1620
193.6000 175.2348
193.7000 175.3076
193.8000 175.3805
193.9000 175.4534
194.0000 175.5263
194.1000 175.5992
194.1012 175.6000
194.2000 175.6721
194.3000 175.7450
194.4000 175.8180
194.5000 175.8909
194.6000 175.9639
194.7000 176.0369
194.7864 176.1000
194.8000 176.1100
194.9000 176.1830
195.0000 176.2561
195.1000 176.3291
195.2000 176.4022
195.3000 176.4753
195.4000 176.5485
195.4705 176.6000
195.5000 176.6216
195.6000 176.6948
195.7000 176.7679
195.8000 176.8411
195.9000 176.9143
196.0000 176.9876
196.1000 177.0608
196.1535 177.1000
196.2000 177.1341
196.3000 177.2074
196.4000 177.2807
196.5000 177.3540
196.6000 177.4273
196.7000 177.5007
196.8000 177.5740
196.8354 177.6000
196.9000 177.6474
197.0000 177.7208
197.1000 177.7942
197.2000 177.8677
197.3000 177.9411
197.4000 178.0146
197.5000 178.0881
197.5162 178.1000
197.6000 178.1616
197.7000 178.2351
197.8000 178.3087
197.9000 178.3823
198.0000 178.4558
198.1000 178.5294
198.1958 178.6000
198.2000 178.6031
198.3000 178.6767
198.4000 178.7504
198.5000 178.8240
198.6000 178.8977
198.7000 178.9714
198.8000 179.0452
198.8744 179.1000
198.9000 179.1189
199.0000 179.1927
199.1000 179.2665
199.2000 179.3403
199.3000 179.4141
199.4000 179.4879
199.5000 179.5618
199.5518 179.6000
199.6000 179.6356
199.7000 179.7095
199.8000 179.7835
199.9000 179.8574
200.0000 179.9313
200.1000 180.0053
200.2000 180.0793
200.2280 180.1000
200.3000 180.1533
200.4000 180.2273
200.5000 180.3014
200.6000 180.3754
200.7000 180.4495
200.8000 180.5236
200.9000 180.5977
200.9031 180.6000
201.0000 180.6719
201.1000 180.7460
201.2000 180.8202
201.3000 180.8944
201.4000 180.9686
201.5000 181.0428
201.5770 181.1000
201.6000 181.1171
201.7000 181.1914
201.8000 181.2657
201.9000 181.3400
202.0000 181.4143
202.1000 181.4887
202.2000 181.5630
202.2497 181.6000
202.3000 181.6374
202.4000 181.7118
202.5000 181.7863
202.6000 181.8607
202.7000 181.9352
202.8000 182.0097
202.9000 182.0842
202.9213 182.1000
203.0000 182.1587
203.1000 182.2332
203.2000 182.3078
203.3000 182.3824
203.4000 182.4570
203.5000 182.5316
203.5916 182.6000
203.6000 182.6062
203.7000 182.6809
203.8000 182.7556
203.9000 182.8303
204.0000 182.9050
204.1000 182.9798
204.2000 183.0545
204.2608 183.1000
204.3000 183.1293
204.4000 183.2041
204.5000 183.2790
204.6000 183.3538
204.7000 183.4287
204.8000 183.5035
204.9000 183.5785
204.9288 183.6000
205.0000 183.6534
205.1000 183.7283
205.2000 183.8033
205.3000 183.8783
205.4000 183.9533
205.5000 184.0283
205.5955 184.1000
205.6000 184.1034
205.7000 184.1784
205.8000 184.2535
205.9000 184.3286
206.0000 184.4038
206.1000 184.4789
206.2000 184.5541
206.2611 184.6000
206.3000 184.6293
206.4000 184.7045
206.5000 184.7797
206.6000 184.8550
206.7000 184.9303
206.8000 185.0056
206.9000 185.0809
206.9254 185.1000
207.0000 185.1562
207.1000 185.2316
207.2000 185.3070
207.3000 185.3824
207.4000 185.4578
207.5000 185.5332
207.5885 185.6000
207.6000 185.6087
207.7000 185.6842
207.8000 185.7597
207.9000 185.8352
208.0000 185.9108
208.1000 185.9863
208.2000 186.0619
208.2503 186.1000
208.3000 186.1376
208.4000 186.2132
208.5000 186.2889
208.6000 186.3645
208.7000 186.4402
208.8000 186.5160
208.9000 186.5917
208.9110 186.6000
209.0000 186.6675
209.1000 186.7433
209.2000 186.8191
209.3000 186.8949
209.4000 186.9707
209.5000 187.0466
209.5703 187.1000
209.6000 187.1225
209.7000 187.1984
209.8000 187.2744
209.9000 187.3503
210.0000 187.4263
210.1000 187.5023
210.2000 187.5784
210.2285 187.6000
210.3000 187.6544
210.4000 187.7305
210.5000 187.8066
210.6000 187.8827
210.7000 187.9588
210.8000 188.0350
210.8853 188.1000
210.9000 188.1112
211.0000 188.1874
211.1000 188.2636
211.2000 188.3399
211.3000 188.4161
211.4000 188.4924
211.5000 188.5688
211.5409 188.6000
211.6000 188.6451
211.7000 188.7215
211.8000 188.7978
211.9000 188.8743
212.0000 188.9507
212.1000 189.0271
212.1953 189.1000
212.2000 189.1036
212.3000 189.1801
212.4000 189.2566
212.5000 189.3332
212.6000 189.4098
212.7000 189.4863
212.8000 189.5630
212.8483 189.6000
212.9000 189.6396
213.0000 189.7162
213.1000 189.7929
213.2000 189.8696
213.3000 189.9464
213.4000 190.0231
213.5000 190.0999
213.5001 190.1000
213.6000 190.1767
213.7000 190.2535
213.8000 190.3304
213.9000 190.4072
214.0000 190.4841
214.1000 190.5610
214.1507 190.6000
214.2000 190.6380
214.3000 190.7149
214.4000 190.7919
214.5000 190.8689
214.6000 190.9460
214.7000 191.0230
214.7999 191.1000
214.8000 191.1001
214.9000 191.1772
215.0000 191.2543
215.1000 191.3315
215.2000 191.4086
215.3000 191.4858
215.4000 191.5631
215.4478 191.6000
215.5000 191.6403
215.6000 191.7176
215.7000 191.7949
215.8000 191.8722
215.9000 191.9495
216.0000 192.0269
216.0945 192.1000
216.1000 192.1043
216.2000 192.1817
216.3000 192.2591
216.4000 192.3366
216.5000 192.4141
216.6000 192.4916
216.7000 192.5691
216.7398 192.6000
216.8000 192.6467
216.9000 192.7242
217.0000 192.8019
217.1000 192.8795
217.2000 192.9571
217.3000 193.0348
217.3839 193.1000
217.4000 193.1125
217.5000 193.1903
217.6000 193.2680
217.7000 193.3458
217.8000 193.4236
217.9000 193.5014
218.0000 193.5793
218.0266 193.6000
218.1000 193.6571
218.2000 193.7350
218.3000 193.8130
218.4000 193.8909
218.5000 193.9689
218.6000 194.0469
218.6681 194.1000
218.7000 194.1249
218.8000 194.2030
218.9000 194.2810
219.0000 194.3591
219.1000 194.4373
219.2000 194.5154
219.3000 194.5936
219.3082 194.6000
219.4000 194.6718
219.5000 194.7500
219.6000 194.8283
219.7000 194.9065
219.8000 194.9848
219.9000 195.0632
219.9470 195.1000
220.0000 195.1415
220.1000 195.2199
220.2000 195.2983
220.3000 195.3767
220.4000 195.4552
220.5000 195.5336
220.5845 195.6000
220.6000 195.6121
220.7000 195.6907
220.8000 195.7692
220.9000 195.8478
221.0000 195.9264
221.1000 196.0050
221.2000 196.0837
221.2207 196.1000
221.3000 196.1624
221.4000 196.2411
221.5000 196.3198
221.6000 196.3986
221.7000 196.4774
221.8000 196.5562
221.8556 196.6000
221.9000 196.6350
222.0000 196.7139
222.1000 196.7928
222.2000 196.8717
222.3000 196.9506
222.4000 197.0296
222.4891 197.1000
222.5000 197.1086
222.6000 197.1876
222.7000 197.2667
222.8000 197.3457
222.9000 197.4248
223.0000 197.5040
223.1000 197.5831
223.1213 197.6000
223.2000 197.6623
223.3000 197.7415
223.4000 197.8207
223.5000 197.9000
223.6000 197.9793
223.7000 198.0586
223.7522 198.1000
223.8000 198.1379
223.9000 198.2173
224.0000 198.2967
224.1000 198.3761
224.2000 198.4555
224.3000 198.5350
224.3818 198.6000
224.4000 198.6145
224.5000 198.6940
224.6000 198.7736
224.7000 198.8532
224.8000 198.9328
224.9000 199.0124
225.0000 199.0921
225.0100 199.1000
225.1000 199.1717
225.2000 199.2515
225.3000 199.3312
225.4000 199.4110
225.5000 199.4908
225.6000 199.5706
225.6369 199.6000
225.7000 199.6504
225.8000 199.7303
225.9000 199.8102
226.0000 199.8901
226.1000 199.9701
226.2000 200.0501
226.2624 200.1000
226.3000 200.1301
226.4000 200.2101
226.5000 200.2902
226.6000 200.3703
226.7000 200.4504
226.8000 200.5306
226.8866 200.6000
226.9000 200.6107
227.0000 200.6909
227.1000 200.7712
227.2000 200.8514
227.3000 200.9317
227.4000 201.0120
227.5000 201.0924
227.5095 201.1000
227.6000 201.1728
227.7000 201.2532
227.8000 201.3336
227.9000 201.4140
228.0000 201.4945
228.1000 201.5750
228.1310 201.6000
228.2000 201.6556
228.3000 201.7362
228.4000 201.8167
228.5000 201.8974
228.6000 201.9780
228.7000 202.0587
228.7512 202.1000
228.8000 202.1394
228.9000 202.2201
229.0000 202.3009
229.1000 202.3817
229.2000 202.4625
229.3000 202.5434
229.3700 202.6000
229.4000 202.6243
229.5000 202.7052
229.6000 202.7861
229.7000 202.8671
229.8000 202.9481
229.9000 203.0291
229.9875 203.1000
230.0000 203.1101
230.1000 203.1912
230.2000 203.2723
230.3000 203.3535
230.4000 203.4346
230.5000 203.5158
230.6000 203.5970
230.6037 203.6000
230.7000 203.6783
230.8000 203.7596
230.9000 203.8409
231.0000 203.9222
231.1000 204.0036
231.2000 204.0850
231.2184 204.1000
231.3000 204.1664
231.4000 204.2479
231.5000 204.3294
231.6000 204.4109
231.7000 204.4924
231.8000 204.5740
231.8319 204.6000
231.9000 204.6556
232.0000 204.7372
232.1000 204.8189
232.2000 204.9006
232.3000 204.9823
232.4000 205.0640
232.4440 205.1000
232.5000 205.1458
232.6000 205.2276
232.7000 205.3094
232.8000 205.3913
232.9000 205.4732
233.0000 205.5551
233.0548 205.6000
233.1000 205.6371
233.2000 205.7191
233.3000 205.8011
233.4000 205.8831
233.5000 205.9652
233.6000 206.0473
233.6642 206.1000
233.7000 206.1294
233.8000 206.2116
233.9000 206.2938
234.0000 206.3760
234.1000 206.4583
234.2000 206.5406
234.2722 206.6000
234.3000 206.6229
234.4000 206.7052
234.5000 206.7876
234.6000 206.8700
234.7000 206.9524
234.8000 207.0349
234.8789 207.1000
234.9000 207.1174
235.0000 207.1999
235.1000 207.2825
235.2000 207.3651
235.3000 207.4477
235.4000 207.5303
235.4843 207.6000
235.5000 207.6130
235.6000 207.6957
235.7000 207.7785
235.8000 207.8612
235.9000 207.9440
236.0000 208.0269
236.0883 208.1000
236.1000 208.1097
236.2000 208.1926
236.3000 208.2755
236.4000 208.3585
236.5000 208.4415
236.6000 208.5245
236.6909 208.6000
236.7000 208.6075
236.8000 208.6906
236.9000 208.7737
237.0000 208.8569
237.1000 208.9400
237.2000 209.0232
237.2922 209.1000
237.3000 209.1065
237.4000 209.1897
237.5000 209.2730
237.6000 209.3563
237.7000 209.4397
237.8000 209.5231
237.8922 209.6000
237.9000 209.6065
238.0000 209.6900
238.1000 209.7734
238.2371 209.8850
