SF_Version 0.9.3
03-Sep-2024 23:12:15 
Temp(K) Pressure(MPa)
273.1527  0.1000
273.1155  0.6000
273.1000  0.8083
273.0783  1.1000
273.0409  1.6000
273.0035  2.1000
273.0000  2.1468
272.9660  2.6000
272.9284  3.1000
272.9000  3.4776
272.8908  3.6000
272.8530  4.1000
272.8152  4.6000
272.8000  4.8011
272.7773  5.1000
272.7394  5.6000
272.7013  6.1000
272.7000  6.1175
272.6632  6.6000
272.6250  7.1000
272.6000  7.4265
272.5867  7.6000
272.5483  8.1000
272.5099  8.6000
272.5000  8.7287
272.4714  9.1000
272.4328  9.6000
272.4000 10.0240
272.3941 10.1000
272.3554 10.6000
272.3165 11.1000
272.3000 11.3124
272.2776 11.6000
272.2386 12.1000
272.2000 12.5944
272.1996 12.6000
272.1604 13.1000
272.1212 13.6000
272.1000 13.8696
272.0819 14.1000
272.0425 14.6000
272.0031 15.1000
272.0000 15.1387
271.9635 15.6000
271.9239 16.1000
271.9000 16.4012
271.8842 16.6000
271.8444 17.1000
271.8046 17.6000
271.8000 17.6577
271.7647 18.1000
271.7247 18.6000
271.7000 18.9079
271.6846 19.1000
271.6444 19.6000
271.6042 20.1000
271.6000 20.1523
271.5639 20.6000
271.5235 21.1000
271.5000 21.3906
271.4830 21.6000
271.4425 22.1000
271.4019 22.6000
271.4000 22.6232
271.3612 23.1000
271.3204 23.6000
271.3000 23.8500
271.2796 24.1000
271.2386 24.6000
271.2000 25.0712
271.1976 25.1000
271.1565 25.6000
271.1154 26.1000
271.1000 26.2867
271.0742 26.6000
271.0328 27.1000
271.0000 27.4969
270.9915 27.6000
270.9500 28.1000
270.9085 28.6000
270.9000 28.7016
270.8668 29.1000
270.8251 29.6000
270.8000 29.9009
270.7834 30.1000
270.7415 30.6000
270.7000 31.0951
270.6996 31.1000
270.6576 31.6000
270.6155 32.1000
270.6000 32.2840
270.5734 32.6000
270.5311 33.1000
270.5000 33.4679
270.4888 33.6000
270.4464 34.1000
270.4040 34.6000
270.4000 34.6467
270.3614 35.1000
270.3188 35.6000
270.3000 35.8205
270.2761 36.1000
270.2334 36.6000
270.2000 36.9895
270.1905 37.1000
270.1476 37.6000
270.1046 38.1000
270.1000 38.1536
270.0615 38.6000
270.0184 39.1000
270.0000 39.3129
269.9752 39.6000
269.9319 40.1000
269.9000 40.4675
269.8885 40.6000
269.8450 41.1000
269.8015 41.6000
269.8000 41.6175
269.7579 42.1000
269.7142 42.6000
269.7000 42.7629
269.6705 43.1000
269.6267 43.6000
269.6000 43.9037
269.5828 44.1000
269.5388 44.6000
269.5000 45.0401
269.4947 45.1000
269.4506 45.6000
269.4064 46.1000
269.4000 46.1721
269.3621 46.6000
269.3177 47.1000
269.3000 47.2996
269.2733 47.6000
269.2288 48.1000
269.2000 48.4229
269.1842 48.6000
269.1395 49.1000
269.1000 49.5420
269.0948 49.6000
269.0500 50.1000
269.0051 50.6000
269.0000 50.6568
268.9601 51.1000
268.9151 51.6000
268.9000 51.7674
268.8700 52.1000
268.8248 52.6000
268.8000 52.8739
268.7795 53.1000
268.7342 53.6000
268.7000 53.9764
268.6888 54.1000
268.6433 54.6000
268.6000 55.0750
268.5977 55.1000
268.5521 55.6000
268.5064 56.1000
268.5000 56.1694
268.4606 56.6000
268.4147 57.1000
268.4000 57.2599
268.3687 57.6000
268.3227 58.1000
268.3000 58.3466
268.2766 58.6000
268.2305 59.1000
268.2000 59.4295
268.1842 59.6000
268.1379 60.1000
268.1000 60.5085
268.0915 60.6000
268.0450 61.1000
268.0000 61.5838
267.9985 61.6000
267.9519 62.1000
267.9052 62.6000
267.9000 62.6554
267.8584 63.1000
267.8116 63.6000
267.8000 63.7232
267.7646 64.1000
267.7176 64.6000
267.7000 64.7875
267.6706 65.1000
267.6234 65.6000
267.6000 65.8481
267.5762 66.1000
267.5289 66.6000
267.5000 66.9052
267.4815 67.1000
267.4341 67.6000
267.4000 67.9588
267.3866 68.1000
267.3390 68.6000
267.3000 69.0088
267.2913 69.1000
267.2436 69.6000
267.2000 70.0555
267.1957 70.1000
267.1478 70.6000
267.1000 71.0987
267.0999 71.1000
267.0518 71.6000
267.0037 72.1000
267.0000 72.1384
266.9555 72.6000
266.9072 73.1000
266.9000 73.1749
266.8589 73.6000
266.8105 74.1000
266.8000 74.2080
266.7620 74.6000
266.7134 75.1000
266.7000 75.2378
266.6648 75.6000
266.6160 76.1000
266.6000 76.2643
266.5672 76.6000
266.5184 77.1000
266.5000 77.2877
266.4694 77.6000
266.4204 78.1000
266.4000 78.3078
266.3713 78.6000
266.3221 79.1000
266.3000 79.3248
266.2729 79.6000
266.2236 80.1000
266.2000 80.3386
266.1742 80.6000
266.1247 81.1000
266.1000 81.3494
266.0752 81.6000
266.0255 82.1000
266.0000 82.3570
265.9758 82.6000
265.9261 83.1000
265.9000 83.3616
265.8762 83.6000
265.8263 84.1000
265.8000 84.3632
265.7763 84.6000
265.7262 85.1000
265.7000 85.3617
265.6761 85.6000
265.6259 86.1000
265.6000 86.3573
265.5756 86.6000
265.5252 87.1000
265.5000 87.3499
265.4748 87.6000
265.4242 88.1000
265.4000 88.3397
265.3736 88.6000
265.3230 89.1000
265.3000 89.3265
265.2722 89.6000
265.2214 90.1000
265.2000 90.3104
265.1705 90.6000
265.1195 91.1000
265.1000 91.2915
265.0685 91.6000
265.0174 92.1000
265.0000 92.2698
264.9662 92.6000
264.9149 93.1000
264.9000 93.2453
264.8636 93.6000
264.8121 94.1000
264.8000 94.2180
264.7606 94.6000
264.7091 95.1000
264.7000 95.1879
264.6574 95.6000
264.6057 96.1000
264.6000 96.1551
264.5539 96.6000
264.5020 97.1000
264.5000 97.1196
264.4501 97.6000
264.4000 98.0814
264.3981 98.1000
264.3460 98.6000
264.3000 99.0405
264.2938 99.1000
264.2415 99.6000
264.2000 99.9970
264.1892 100.1000
264.1368 100.6000
264.1000 100.9508
264.0843 101.1000
264.0318 101.6000
264.0000 101.9020
263.9792 102.1000
263.9265 102.6000
263.9000 102.8507
263.8737 103.1000
263.8208 103.6000
263.8000 103.7967
263.7679 104.1000
263.7149 104.6000
263.7000 104.7403
263.6618 105.1000
263.6087 105.6000
263.6000 105.6813
263.5554 106.1000
263.5021 106.6000
263.5000 106.6198
263.4487 107.1000
263.4000 107.5558
263.3953 107.6000
263.3417 108.1000
263.3000 108.4893
263.2881 108.6000
263.2344 109.1000
263.2000 109.4203
263.1807 109.6000
263.1268 110.1000
263.1000 110.3490
263.0729 110.6000
263.0189 111.1000
263.0000 111.2752
262.9649 111.6000
262.9107 112.1000
262.9000 112.1990
262.8565 112.6000
262.8022 113.1000
262.8000 113.1204
262.7478 113.6000
262.7000 114.0394
262.6934 114.1000
262.6389 114.6000
262.6000 114.9561
262.5843 115.1000
262.5296 115.6000
262.5000 115.8704
262.4749 116.1000
262.4200 116.6000
262.4000 116.7824
262.3651 117.1000
262.3101 117.6000
262.3000 117.6922
262.2551 118.1000
262.2000 118.5996
262.2000 118.6000
262.1447 119.1000
262.1000 119.5047
262.0895 119.6000
262.0341 120.1000
262.0000 120.4076
261.9787 120.6000
261.9231 121.1000
261.9000 121.3082
261.8676 121.6000
261.8119 122.1000
261.8000 122.2067
261.7561 122.6000
261.7003 123.1000
261.7000 123.1029
261.6444 123.6000
261.6000 123.9968
261.5884 124.1000
261.5324 124.6000
261.5000 124.8886
261.4763 125.1000
261.4201 125.6000
261.4000 125.7783
261.3638 126.1000
261.3074 126.6000
261.3000 126.6657
261.2510 127.1000
261.2000 127.5511
261.1945 127.6000
261.1379 128.1000
261.1000 128.4342
261.0812 128.6000
261.0245 129.1000
261.0000 129.3153
260.9676 129.6000
260.9107 130.1000
260.9000 130.1943
260.8538 130.6000
260.8000 131.0712
260.7967 131.1000
260.7396 131.6000
260.7000 131.9459
260.6824 132.1000
260.6251 132.6000
260.6000 132.8186
260.5677 133.1000
260.5103 133.6000
260.5000 133.6893
260.4527 134.1000
260.4000 134.5579
260.3951 134.6000
260.3375 135.1000
260.3000 135.4245
260.2797 135.6000
260.2219 136.1000
260.2000 136.2890
260.1640 136.6000
260.1060 137.1000
260.1000 137.1516
260.0479 137.6000
260.0000 138.0122
259.9898 138.1000
259.9316 138.6000
259.9000 138.8707
259.8733 139.1000
259.8149 139.6000
259.8000 139.7273
259.7564 140.1000
259.7000 140.5820
259.6979 140.6000
259.6393 141.1000
259.6000 141.4346
259.5806 141.6000
259.5218 142.1000
259.5000 142.2854
259.4630 142.6000
259.4040 143.1000
259.4000 143.1342
259.3450 143.6000
259.3000 143.9811
259.2859 144.1000
259.2268 144.6000
259.2000 144.8261
259.1675 145.1000
259.1082 145.6000
259.1000 145.6692
259.0488 146.1000
259.0000 146.5104
258.9893 146.6000
258.9298 147.1000
258.9000 147.3497
258.8701 147.6000
258.8104 148.1000
258.8000 148.1872
258.7506 148.6000
258.7000 149.0228
258.6908 149.1000
258.6308 149.6000
258.6000 149.8566
258.5708 150.1000
258.5107 150.6000
258.5000 150.6885
258.4505 151.1000
258.4000 151.5186
258.3902 151.6000
258.3298 152.1000
258.3000 152.3469
258.2694 152.6000
258.2089 153.1000
258.2000 153.1734
258.1483 153.6000
258.1000 153.9981
258.0876 154.1000
258.0269 154.6000
258.0000 154.8210
257.9660 155.1000
257.9051 155.6000
257.9000 155.6421
257.8441 156.1000
257.8000 156.4615
257.7831 156.6000
257.7219 157.1000
257.7000 157.2790
257.6607 157.6000
257.6000 158.0949
257.5994 158.1000
257.5380 158.6000
257.5000 158.9090
257.4765 159.1000
257.4149 159.6000
257.4000 159.7213
257.3533 160.1000
257.3000 160.5320
257.2916 160.6000
257.2298 161.1000
257.2000 161.3409
257.1679 161.6000
257.1060 162.1000
257.1000 162.1481
257.0439 162.6000
257.0000 162.9536
256.9818 163.1000
256.9196 163.6000
256.9000 163.7574
256.8573 164.1000
256.8000 164.5596
256.7950 164.6000
256.7325 165.1000
256.7000 165.3600
256.6700 165.6000
256.6074 166.1000
256.6000 166.1588
256.5447 166.6000
256.5000 166.9559
256.4819 167.1000
256.4190 167.6000
256.4000 167.7514
256.3561 168.1000
256.3000 168.5452
256.2931 168.6000
256.2300 169.1000
256.2000 169.3374
256.1668 169.6000
256.1035 170.1000
256.1000 170.1280
256.0402 170.6000
256.0000 170.9169
255.9768 171.1000
255.9133 171.6000
255.9000 171.7043
255.8497 172.1000
255.8000 172.4900
255.7860 172.6000
255.7222 173.1000
255.7000 173.2741
255.6584 173.6000
255.6000 174.0567
255.5945 174.1000
255.5304 174.6000
255.5000 174.8376
255.4664 175.1000
255.4022 175.6000
255.4000 175.6170
255.3379 176.1000
255.3000 176.3948
255.2736 176.6000
255.2092 177.1000
255.2000 177.1711
255.1446 177.6000
255.1000 177.9457
255.0801 178.1000
255.0154 178.6000
255.0000 178.7189
254.9506 179.1000
254.9000 179.4905
254.8858 179.6000
254.8209 180.1000
254.8000 180.2605
254.7558 180.6000
254.7000 181.0291
254.6908 181.1000
254.6256 181.6000
254.6000 181.7960
254.5603 182.1000
254.5000 182.5616
254.4950 182.6000
254.4295 183.1000
254.4000 183.3255
254.3640 183.6000
254.3000 184.0880
254.2984 184.1000
254.2327 184.6000
254.2000 184.8490
254.1670 185.1000
254.1011 185.6000
254.1000 185.6085
254.0352 186.1000
254.0000 186.3665
253.9692 186.6000
253.9030 187.1000
253.9000 187.1230
253.8368 187.6000
253.8000 187.8781
253.7706 188.1000
253.7042 188.6000
253.7000 188.6317
253.6378 189.1000
253.6000 189.3838
253.5712 189.6000
253.5046 190.1000
253.5000 190.1345
253.4379 190.6000
253.4000 190.8837
253.3711 191.1000
253.3042 191.6000
253.3000 191.6315
253.2372 192.1000
253.2000 192.3779
253.1702 192.6000
253.1031 193.1000
253.1000 193.1228
253.0358 193.6000
253.0000 193.8663
252.9685 194.1000
252.9011 194.6000
252.9000 194.6084
252.8336 195.1000
252.8000 195.3490
252.7661 195.6000
252.7000 196.0883
252.6984 196.1000
252.6307 196.6000
252.6000 196.8262
252.5628 197.1000
252.5000 197.5627
252.4949 197.6000
252.4269 198.1000
252.4000 198.2977
252.3588 198.6000
252.3000 199.0314
252.2906 199.1000
252.2224 199.6000
252.2000 199.7637
252.1540 200.1000
252.1000 200.4947
252.0856 200.6000
252.0170 201.1000
252.0000 201.2242
251.9484 201.6000
251.9000 201.9524
251.8797 202.1000
251.8109 202.6000
251.8000 202.6793
251.7420 203.1000
251.7000 203.4048
251.6731 203.6000
251.6040 204.1000
251.6000 204.1290
251.5348 204.6000
251.5000 204.8517
251.4656 205.1000
251.4000 205.5732
251.3963 205.6000
251.3269 206.1000
251.3000 206.2933
251.2574 206.6000
251.2000 207.0121
251.1878 207.1000
251.1191 207.5930
