SF_Version 0.9.3
03-Sep-2024 23:12:15
Temp(K) Pressure(MPa) Temp(K) Pressure(MPa)  Points 
201.9335 670.8401 273.4063 634.3997 813.0000
###########################################################
D H (J/kg)  D S (J/(K*kg)
-4569.2863 -22.6278
-4556.0717 -22.5548
-4536.1213 -22.4449
-4516.1417 -22.3350
-4513.9084 -22.3227
-4496.1331 -22.2251
-4476.0952 -22.1151
-4456.0282 -22.0051
-4435.9320 -21.8950
-4415.8066 -21.7849
-4395.6520 -21.6748
-4375.4682 -21.5647
-4355.2553 -21.4545
-4335.0132 -21.3442
-4333.1870 -21.3343
-4314.7422 -21.2340
-4294.4420 -21.1237
-4274.1127 -21.0133
-4253.7543 -20.9030
-4233.3667 -20.7926
-4212.9501 -20.6821
-4192.5043 -20.5717
-4172.0294 -20.4612
-4151.5255 -20.3506
-4141.2910 -20.2955
-4130.9925 -20.2400
-4110.4306 -20.1294
-4089.8396 -20.0188
-4069.2195 -19.9081
-4048.5704 -19.7974
-4027.8922 -19.6867
-4007.1850 -19.5759
-3986.4488 -19.4651
-3965.6835 -19.3542
-3944.8893 -19.2434
-3936.4228 -19.1983
-3924.0661 -19.1325
-3903.2140 -19.0215
-3882.3329 -18.9105
-3861.4228 -18.7995
-3840.4838 -18.6885
-3819.5157 -18.5774
-3798.5187 -18.4663
-3777.4928 -18.3552
-3756.4379 -18.2440
-3735.3541 -18.1328
-3716.2032 -18.0319
-3714.2413 -18.0215
-3693.0998 -17.9103
-3671.9294 -17.7990
-3650.7300 -17.6876
-3629.5018 -17.5763
-3608.2446 -17.4649
-3586.9586 -17.3535
-3565.6436 -17.2420
-3544.2999 -17.1305
-3522.9272 -17.0190
-3501.5257 -16.9074
-3480.0953 -16.7958
-3477.3938 -16.7818
-3458.6362 -16.6842
-3437.1483 -16.5726
-3415.6316 -16.4609
-3394.0861 -16.3492
-3372.5117 -16.2374
-3350.9085 -16.1256
-3329.2766 -16.0138
-3307.6158 -15.9020
-3285.9262 -15.7901
-3264.2079 -15.6782
-3242.4608 -15.5663
-3220.6849 -15.4543
-3215.4711 -15.4276
-3198.8804 -15.3424
-3177.0471 -15.2303
-3155.1851 -15.1183
-3133.2944 -15.0062
-3111.3749 -14.8941
-3089.4267 -14.7819
-3067.4497 -14.6698
-3045.4441 -14.5576
-3023.4097 -14.4453
-3001.3467 -14.3331
-2979.2549 -14.2208
-2957.1345 -14.1085
-2934.9853 -13.9961
-2923.6832 -13.9388
-2912.8076 -13.8837
-2890.6012 -13.7713
-2868.3662 -13.6589
-2846.1025 -13.5464
-2823.8102 -13.4339
-2801.4892 -13.3214
-2779.1396 -13.2088
-2756.7613 -13.0963
-2734.3544 -12.9836
-2711.9189 -12.8710
-2689.4548 -12.7583
-2666.9620 -12.6456
-2644.4407 -12.5329
-2621.8907 -12.4201
-2599.3122 -12.3073
-2591.1434 -12.2666
-2576.7051 -12.1945
-2554.0695 -12.0817
-2531.4053 -11.9688
-2508.7126 -11.8559
-2485.9912 -11.7430
-2463.2413 -11.6300
-2440.4629 -11.5170
-2417.6559 -11.4040
-2394.8203 -11.2910
-2371.9563 -11.1779
-2349.0636 -11.0648
-2326.1425 -10.9517
-2303.1928 -10.8386
-2280.2146 -10.7254
-2257.2079 -10.6122
-2234.1727 -10.4989
-2211.1090 -10.3857
-2198.0360 -10.3215
-2188.0169 -10.2724
-2164.8963 -10.1591
-2141.7472 -10.0457
-2118.5696 -9.9323
-2095.3636 -9.8189
-2072.1291 -9.7055
-2048.8661 -9.5921
-2025.5747 -9.4786
-2002.2548 -9.3651
-1978.9065 -9.2515
-1955.5297 -9.1380
-1932.1245 -9.0244
-1908.6908 -8.9108
-1885.2288 -8.7971
-1861.7383 -8.6835
-1838.2194 -8.5698
-1814.6721 -8.4561
-1791.0964 -8.3423
-1767.4922 -8.2285
-1743.8597 -8.1147
-1720.1988 -8.0009
-1700.0669 -7.9042
-1696.5096 -7.8871
-1672.7920 -7.7732
-1649.0460 -7.6593
-1625.2717 -7.5454
-1601.4690 -7.4314
-1577.6379 -7.3174
-1553.7785 -7.2034
-1529.8908 -7.0894
-1505.9747 -6.9753
-1482.0302 -6.8613
-1458.0574 -6.7471
-1434.0563 -6.6330
-1410.0269 -6.5188
-1385.9692 -6.4047
-1361.8831 -6.2905
-1337.7687 -6.1762
-1313.6260 -6.0620
-1289.4551 -5.9477
-1265.2558 -5.8334
-1241.0282 -5.7190
-1216.7724 -5.6047
-1192.4883 -5.4903
-1168.1759 -5.3759
-1143.8352 -5.2614
-1119.4663 -5.1470
-1095.0691 -5.0325
-1070.6436 -4.9180
-1046.1899 -4.8034
-1021.7079 -4.6889
-997.1977 -4.5743
-972.6593 -4.4597
-948.0926 -4.3451
-932.7550 -4.2736
-923.4977 -4.2304
-898.8746 -4.1157
-874.2233 -4.0010
-849.5437 -3.8863
-824.8360 -3.7715
-800.1000 -3.6568
-775.3358 -3.5420
-750.5434 -3.4271
-725.7228 -3.3123
-700.8740 -3.1974
-675.9970 -3.0825
-651.0919 -2.9676
-626.1585 -2.8527
-601.1969 -2.7377
-576.2072 -2.6227
-551.1893 -2.5077
-526.1432 -2.3926
-501.0690 -2.2776
-475.9665 -2.1625
-450.8360 -2.0474
-425.6772 -1.9323
-400.4903 -1.8171
-375.2752 -1.7019
-350.0320 -1.5867
-324.7606 -1.4715
-299.4611 -1.3563
-274.1334 -1.2410
-248.7776 -1.1257
-223.3937 -1.0104
-197.9816 -0.8950
-172.5414 -0.7797
-147.0730 -0.6643
-121.5765 -0.5489
-96.0519 -0.4334
-70.4991 -0.3180
-44.9182 -0.2025
-19.3092 -0.0870
6.3279 0.0285
31.9932 0.1440
57.6865 0.2596
83.4080 0.3752
109.1577 0.4908
134.9354 0.6065
160.7412 0.7221
186.5752 0.8378
212.4372 0.9535
238.3274 1.0692
264.2457 1.1850
290.1921 1.3007
316.1666 1.4165
342.1692 1.5323
368.1999 1.6482
394.2587 1.7640
420.3456 1.8799
446.4607 1.9958
472.6038 2.1117
498.7750 2.2277
524.9743 2.3436
551.2017 2.4596
577.4573 2.5756
603.7409 2.6917
630.0526 2.8077
656.3924 2.9238
682.7603 3.0399
709.1564 3.1560
735.5805 3.2722
762.0327 3.3883
788.5130 3.5045
815.0214 3.6207
841.5579 3.7369
868.1225 3.8532
894.7152 3.9695
921.3359 4.0857
947.9848 4.2021
966.8569 4.2844
974.6618 4.3184
1001.3668 4.4348
1028.0999 4.5511
1054.8611 4.6675
1081.6504 4.7839
1108.4678 4.9004
1135.3133 5.0169
1162.1869 5.1333
1189.0886 5.2498
1216.0184 5.3664
1242.9763 5.4829
1269.9622 5.5995
1296.9763 5.7161
1324.0185 5.8327
1351.0887 5.9493
1378.1871 6.0660
1405.3135 6.1826
1432.4681 6.2993
1459.6507 6.4160
1486.8614 6.5328
1514.1003 6.6495
1541.3672 6.7663
1568.6622 6.8831
1595.9853 6.9999
1623.3366 7.1168
1650.7159 7.2336
1678.1233 7.3505
1705.5588 7.4674
1733.0225 7.5843
1760.5142 7.7013
1788.0340 7.8183
1815.5819 7.9352
1817.0625 7.9415
1843.1579 8.0522
1870.7619 8.1693
1898.3941 8.2863
1926.0543 8.4034
1953.7427 8.5205
1981.4591 8.6376
2009.2037 8.7547
2036.9763 8.8718
2064.7771 8.9890
2092.6060 9.1062
2120.4629 9.2234
2148.3480 9.3406
2176.2612 9.4579
2204.2025 9.5752
2232.1719 9.6925
2260.1694 9.8098
2288.1950 9.9271
2316.2487 10.0444
2344.3306 10.1618
2372.4405 10.2792
2398.0098 10.3859
2400.5786 10.3966
2428.7446 10.5140
2456.9388 10.6315
2485.1611 10.7490
2513.4115 10.8665
2541.6900 10.9840
2569.9966 11.1015
2598.3314 11.2190
2626.6943 11.3366
2655.0852 11.4542
2683.5043 11.5718
2711.9516 11.6894
2740.4269 11.8071
2768.9303 11.9248
2797.4619 12.0425
2826.0216 12.1602
2854.6095 12.2779
2874.1395 12.3583
2883.2254 12.3956
2911.8693 12.5134
2940.5414 12.6312
2969.2416 12.7490
2997.9700 12.8668
3026.7265 12.9847
3055.5111 13.1025
3084.3238 13.2204
3113.1647 13.3383
3142.0337 13.4562
3170.9309 13.5742
3199.8562 13.6922
3228.8096 13.8101
3257.7912 13.9281
3286.8009 14.0462
3289.8089 14.0584
3315.8387 14.1642
3344.9046 14.2823
3373.9986 14.4003
3403.1208 14.5184
3432.2712 14.6366
3461.4497 14.7547
3490.6564 14.8728
3519.8912 14.9910
3549.1542 15.1092
3578.4454 15.2274
3607.7647 15.3457
3637.1122 15.4639
3664.7741 15.5753
3666.4879 15.5822
3695.8916 15.7005
3725.3235 15.8188
3754.7835 15.9371
3784.2718 16.0555
3813.7882 16.1738
3843.3329 16.2922
3872.9057 16.4106
3902.5067 16.5290
3932.1359 16.6475
3961.7933 16.7659
3991.4790 16.8844
4009.9201 16.9580
4021.1928 17.0029
4050.9347 17.1214
4080.7048 17.2400
4110.5031 17.3585
4140.3296 17.4771
4170.1844 17.5957
4200.0674 17.7143
4229.9787 17.8330
4259.9181 17.9516
4289.8859 18.0703
4319.8818 18.1890
4332.0418 18.2371
4349.9059 18.3077
4379.9582 18.4264
4410.0388 18.5452
4440.1476 18.6639
4470.2847 18.7827
4500.4500 18.9015
4530.6436 19.0203
4560.8655 19.1392
4591.1157 19.2580
4621.3942 19.3769
4635.6530 19.4329
4651.7008 19.4958
4682.0357 19.6147
4712.3989 19.7337
4742.7903 19.8526
4773.2101 19.9716
4803.6582 20.0906
4834.1346 20.2096
4864.6393 20.3286
4895.1724 20.4477
4923.9858 20.5599
4925.7338 20.5667
4956.3233 20.6858
4986.9412 20.8049
5017.5874 20.9241
5048.2619 21.0432
5078.9648 21.1624
5109.6961 21.2815
5140.4557 21.4007
5171.2438 21.5199
5199.3852 21.6288
5202.0601 21.6392
5232.9047 21.7584
5263.7776 21.8777
5294.6790 21.9970
5325.6087 22.1163
5356.5668 22.2356
5387.5533 22.3550
5418.5683 22.4744
5449.6116 22.5937
5463.6785 22.6478
5480.6833 22.7132
5511.7832 22.8326
5542.9117 22.9520
5574.0685 23.0715
5605.2538 23.1910
5636.4675 23.3105
5667.7097 23.4300
5698.9803 23.5495
5718.3175 23.6234
5730.2794 23.6691
5761.6067 23.7886
5792.9625 23.9082
5824.3468 24.0278
5855.7596 24.1475
5887.2009 24.2671
5918.6706 24.3868
5950.1689 24.5065
5964.4324 24.5606
5981.6955 24.6262
6013.2506 24.7459
6044.8341 24.8656
6076.4462 24.9854
6108.0869 25.1052
6139.7560 25.2250
6171.4537 25.3448
6202.9769 25.4638
6203.1799 25.4646
6234.9345 25.5845
6266.7176 25.7043
6298.5292 25.8242
6330.3695 25.9441
6362.2383 26.0641
6394.1357 26.1840
6426.0617 26.3040
6434.6816 26.3363
6458.0161 26.4240
6489.9990 26.5440
6522.0106 26.6640
6554.0507 26.7840
6586.1195 26.9041
6618.2169 27.0242
6650.3429 27.1443
6660.2382 27.1812
6682.4974 27.2644
6714.6805 27.3845
6746.8922 27.5047
6779.1325 27.6248
6811.4016 27.7450
6843.6993 27.8652
6876.0257 27.9855
6880.1962 28.0010
6908.3805 28.1057
6940.7640 28.2260
6973.1762 28.3462
7005.6172 28.4665
7038.0868 28.5869
7070.5851 28.7072
7095.0135 28.7976
7103.1122 28.8276
7135.6677 28.9479
7168.2520 29.0683
7200.8650 29.1888
7233.5068 29.3092
7266.1774 29.4296
7298.8767 29.5501
7305.1188 29.5731
7331.6046 29.6706
7364.3612 29.7911
7397.1466 29.9116
7429.9609 30.0322
7462.8039 30.1527
7495.6757 30.2733
7510.8580 30.3290
7528.5763 30.3939
7561.5055 30.5146
7594.4635 30.6352
7627.4505 30.7558
7660.4662 30.8765
7693.5109 30.9972
7712.5598 31.0668
7726.5842 31.1179
7759.6863 31.2387
7792.8173 31.3594
7825.9772 31.4802
7859.1660 31.6010
7892.3836 31.7218
7910.4978 31.7876
7925.6301 31.8426
7958.9054 31.9635
7992.2095 32.0843
8025.5426 32.2052
8058.9047 32.3261
8092.2957 32.4471
8104.9218 32.4928
8125.7155 32.5680
8159.1642 32.6890
8192.6418 32.8099
8226.1485 32.9309
8259.6841 33.0520
8293.2488 33.1730
8296.0609 33.1831
8326.8421 33.2941
8360.4645 33.4151
8394.1159 33.5362
8427.7964 33.6573
8461.5058 33.7785
8484.0918 33.8596
8495.2443 33.8996
8529.0116 34.0208
8562.8080 34.1420
8596.6334 34.2632
8630.4879 34.3844
8664.3716 34.5057
8669.2228 34.5230
8698.2841 34.6269
8732.2256 34.7482
8766.1963 34.8695
8800.1960 34.9908
8834.2250 35.1122
8851.5938 35.1741
8868.2829 35.2335
8902.3698 35.3549
8936.4859 35.4763
8970.6312 35.5977
9004.8056 35.7192
9031.3749 35.8135
9039.0091 35.8406
9073.2416 35.9621
9107.5034 36.0836
9141.7943 36.2051
9176.1145 36.3267
9208.6938 36.4420
9210.4638 36.4482
9244.8421 36.5698
9279.2497 36.6914
9313.6865 36.8130
9348.1526 36.9346
9382.6480 37.0563
9383.6676 37.0599
9417.1724 37.1779
9451.7260 37.2996
9486.3090 37.4213
9520.9213 37.5431
9555.5629 37.6648
9556.4151 37.6678
9590.2335 37.7866
9624.9335 37.9084
9659.6628 38.0302
9694.4215 38.1520
9727.0403 38.2662
9729.2096 38.2738
9764.0267 38.3957
9798.8733 38.5176
9833.7492 38.6395
9868.6546 38.7614
9895.6386 38.8556
9903.5893 38.8834
9938.5533 39.0053
9973.5466 39.1273
10008.5695 39.2493
10043.6218 39.3713
10062.3060 39.4363
10078.7035 39.4934
10113.8145 39.6154
10148.9550 39.7375
10184.1251 39.8596
10219.3246 39.9817
10227.1305 40.0088
10254.5535 40.1038
10289.8118 40.2260
10325.0998 40.3482
10360.4173 40.4704
10390.1817 40.5733
10395.7644 40.5926
10431.1408 40.7148
10466.5468 40.8371
10501.9824 40.9594
10537.4478 41.0817
10551.5275 41.1302
10572.9426 41.2040
10608.4669 41.3263
10644.0209 41.4487
10679.6046 41.5711
10711.2525 41.6798
10715.2180 41.6935
10750.8609 41.8159
10786.5334 41.9383
10822.2358 42.0608
10857.9680 42.1832
10869.3987 42.2224
10893.7296 42.3057
10929.5210 42.4283
10965.3422 42.5508
11001.1933 42.6734
11026.0416 42.7583
11037.0741 42.7959
11072.9845 42.9185
11108.9247 43.0412
11144.8949 43.1638
11180.8951 43.2865
11181.2401 43.2876
11216.9247 43.4092
11252.9843 43.5319
11289.0739 43.6546
11325.1934 43.7773
11335.0224 43.8107
11361.3427 43.9001
11397.5219 44.0229
11433.7311 44.1457
11469.9703 44.2685
11487.4596 44.3278
11506.2394 44.3914
11542.5383 44.5142
11578.8674 44.6371
11615.2266 44.7600
11638.5955 44.8390
11651.6157 44.8830
11688.0347 45.0059
11724.4839 45.1289
11760.9632 45.2519
11788.4723 45.3446
11797.4726 45.3749
11834.0119 45.4979
11870.5814 45.6210
11907.1812 45.7441
11937.1300 45.8447
11943.8111 45.8672
11980.4710 45.9903
12017.1611 46.1134
12053.8815 46.2366
12084.6076 46.3396
12090.6321 46.3598
12127.4128 46.4830
12164.2237 46.6062
12201.0650 46.7295
12230.9419 46.8294
12237.9366 46.8527
12274.8383 46.9760
12311.7703 47.0994
12348.7328 47.2227
12376.1686 47.3142
12385.7256 47.3460
12422.7485 47.4694
12459.8018 47.5928
12496.8857 47.7162
12520.3220 47.7942
12533.9998 47.8397
12571.1442 47.9632
12608.3192 48.0866
12645.5246 48.2102
12663.4349 48.2696
12682.7604 48.3337
12720.0265 48.4572
12757.3233 48.5808
12794.6506 48.7044
12805.5389 48.7405
12832.0082 48.8280
12869.3963 48.9517
12906.8150 49.0753
12944.2644 49.1990
12946.6644 49.2070
12981.7441 49.3227
13019.2544 49.4465
13056.7954 49.5702
13086.8260 49.6692
13094.3670 49.6940
13131.9690 49.8178
13169.6018 49.9416
13207.2653 50.0654
13226.0595 50.1272
13244.9593 50.1893
13282.6839 50.3132
13320.4393 50.4371
13358.2255 50.5610
13364.3968 50.5813
13396.0422 50.6850
13433.8897 50.8090
13471.7680 50.9330
13501.8494 51.0314
13509.6771 51.0570
13547.6167 51.1810
13585.5872 51.3051
13623.5886 51.4292
13638.4436 51.4777
13661.6207 51.5533
13699.6836 51.6774
13737.7774 51.8016
13774.2126 51.9203
13775.9023 51.9258
13814.0576 52.0500
13852.2440 52.1742
13890.4614 52.2984
13909.1537 52.3592
13928.7096 52.4227
13966.9886 52.5470
14005.2988 52.6713
14043.3169 52.7946
14043.6400 52.7956
14082.0118 52.9200
14120.4148 53.0444
14158.8490 53.1688
14176.6892 53.2265
14197.3140 53.2932
14235.8100 53.4177
14274.3372 53.5422
14309.3198 53.6551
14312.8956 53.6667
14351.4848 53.7912
14390.1052 53.9157
14428.7569 54.0403
14441.2025 54.0804
14467.4395 54.1649
14506.1533 54.2895
14544.8984 54.4141
14572.3697 54.5025
14583.6748 54.5388
14622.4821 54.6635
14661.3208 54.7882
14700.1909 54.9129
14702.8374 54.9214
14739.0919 55.0377
14778.0244 55.1625
14816.9883 55.2873
14832.6063 55.3373
14855.9834 55.4121
14895.0098 55.5369
14934.0677 55.6618
14961.7097 55.7502
14973.1570 55.7867
15012.2775 55.9116
15051.4295 56.0366
15090.1607 56.1601
15090.6132 56.1616
15129.8279 56.2866
15169.0743 56.4116
15208.3524 56.5366
15217.9562 56.5672
15247.6617 56.6617
15287.0027 56.7868
15326.3753 56.9119
15345.1256 56.9715
15365.7794 57.0370
15405.2151 57.1622
15444.6825 57.2874
15471.6819 57.3730
15484.1815 57.4126
15523.7121 57.5379
15563.2745 57.6631
15597.6372 57.7719
15602.8687 57.7884
15642.4943 57.9137
15682.1518 58.0391
15721.8413 58.1644
15723.0010 58.1681
15761.5623 58.2898
15801.3152 58.4152
15841.1001 58.5407
15847.7796 58.5617
15880.9166 58.6661
15920.7651 58.7916
15960.6457 58.9171
15971.9926 58.9528
16000.5579 59.0426
16040.5022 59.1682
16080.4786 59.2938
16095.6508 59.3414
16120.4868 59.4194
16160.5270 59.5451
16200.5994 59.6707
16218.7646 59.7277
16240.7038 59.7964
16280.8402 59.9221
16321.0089 60.0479
16341.3443 60.1115
16361.2096 60.1736
16401.4424 60.2994
16441.7075 60.4252
16463.4000 60.4930
16482.0048 60.5511
16522.3341 60.6770
16562.6959 60.8028
16584.9415 60.8722
16603.0899 60.9288
16643.5161 61.0547
16683.9748 61.1807
16705.9783 61.2492
16724.4657 61.3067
16764.9889 61.4327
16805.5447 61.5588
16826.5197 61.6239
16846.1327 61.6849
16886.7532 61.8110
16927.4062 61.9371
16946.5750 61.9965
16970.6459 62.0712
