SF_Version 0.9.3
03-Sep-2024 23:12:15 
Temp(K) Pressure(MPa)
 0.1000 1071.2224
 0.1904 1071.0000
 0.5971 1070.0000
 0.6000 1069.9930
 1.0038 1069.0000
 1.1000 1068.7636
 1.4106 1068.0000
 1.6000 1067.5342
 1.8173 1067.0000
 2.1000 1066.3049
 2.2240 1066.0000
 2.6000 1065.0758
 2.6309 1065.0000
 3.0378 1064.0000
 3.1000 1063.8471
 3.4448 1063.0000
 3.6000 1062.6189
 3.8521 1062.0000
 4.1000 1061.3916
 4.2597 1061.0000
 4.6000 1060.1655
 4.6676 1060.0000
 5.0759 1059.0000
 5.1000 1058.9409
 5.4847 1058.0000
 5.6000 1057.7181
 5.8942 1057.0000
 6.1000 1056.4976
 6.3042 1056.0000
 6.6000 1055.2795
 6.7150 1055.0000
 7.1000 1054.0643
 7.1265 1054.0000
 7.5390 1053.0000
 7.6000 1052.8522
 7.9525 1052.0000
 8.1000 1051.6435
 8.3670 1051.0000
 8.6000 1050.4385
 8.7825 1050.0000
 9.1000 1049.2373
 9.1991 1049.0000
 9.6000 1048.0400
 9.6168 1048.0000
10.0359 1047.0000
10.1000 1046.8470
10.4562 1046.0000
10.6000 1045.6582
10.8778 1045.0000
11.1000 1044.4737
11.3007 1044.0000
11.6000 1043.2937
11.7249 1043.0000
12.1000 1042.1182
12.1505 1042.0000
12.5774 1041.0000
12.6000 1040.9472
13.0060 1040.0000
13.1000 1039.7807
13.4359 1039.0000
13.6000 1038.6186
13.8672 1038.0000
14.1000 1037.4611
14.2999 1037.0000
14.6000 1036.3080
14.7340 1036.0000
15.1000 1035.1593
15.1696 1035.0000
15.6000 1034.0148
15.6065 1034.0000
16.0450 1033.0000
16.1000 1032.8747
16.4850 1032.0000
16.6000 1031.7387
16.9263 1031.0000
17.1000 1030.6068
17.3690 1030.0000
17.6000 1029.4789
17.8131 1029.0000
18.1000 1028.3550
18.2585 1028.0000
18.6000 1027.2349
18.7052 1027.0000
19.1000 1026.1186
19.1533 1026.0000
19.6000 1025.0060
19.6027 1025.0000
20.0536 1024.0000
20.1000 1023.8970
20.5057 1023.0000
20.6000 1022.7916
20.9592 1022.0000
21.1000 1021.6896
21.4139 1021.0000
21.6000 1020.5910
21.8698 1020.0000
22.1000 1019.4958
22.3270 1019.0000
22.6000 1018.4038
22.7854 1018.0000
23.1000 1017.3150
23.2450 1017.0000
23.6000 1016.2293
23.7059 1016.0000
24.1000 1015.1467
24.1680 1015.0000
24.6000 1014.0672
24.6312 1014.0000
25.0957 1013.0000
25.1000 1012.9906
25.5614 1012.0000
25.6000 1011.9171
26.0283 1011.0000
26.1000 1010.8464
26.4963 1010.0000
26.6000 1009.7786
26.9655 1009.0000
27.1000 1008.7136
27.4359 1008.0000
27.6000 1007.6515
27.9075 1007.0000
28.1000 1006.5921
28.3802 1006.0000
28.6000 1005.5354
28.8540 1005.0000
29.1000 1004.4815
29.3290 1004.0000
29.6000 1003.4304
29.8052 1003.0000
30.1000 1002.3819
30.2826 1002.0000
30.6000 1001.3361
30.7611 1001.0000
31.1000 1000.2929
31.2407 1000.0000
31.6000 999.2524
31.7216 999.0000
32.1000 998.2146
32.2036 998.0000
32.6000 997.1793
32.6868 997.0000
33.1000 996.1467
33.1712 996.0000
33.6000 995.1167
33.6568 995.0000
34.1000 994.0894
34.1436 994.0000
34.6000 993.0646
34.6316 993.0000
35.1000 992.0424
35.1208 992.0000
35.6000 991.0228
35.6112 991.0000
36.1000 990.0058
36.1029 990.0000
36.5958 989.0000
36.6000 988.9914
37.0899 988.0000
37.1000 987.9796
37.5853 987.0000
37.6000 986.9704
38.0820 986.0000
38.1000 985.9637
38.5799 985.0000
38.6000 984.9596
39.0791 984.0000
39.1000 983.9582
39.5796 983.0000
39.6000 982.9593
40.0814 982.0000
40.1000 981.9629
40.5845 981.0000
40.6000 980.9692
41.0889 980.0000
41.1000 979.9781
41.5947 979.0000
41.6000 978.9895
42.1000 978.0035
42.1018 978.0000
42.6000 977.0201
42.6102 977.0000
43.1000 976.0392
43.1201 976.0000
43.6000 975.0610
43.6313 975.0000
44.1000 974.0853
44.1438 974.0000
44.6000 973.1122
44.6578 973.0000
45.1000 972.1417
45.1732 972.0000
45.6000 971.1737
45.6900 971.0000
46.1000 970.2083
46.2082 970.0000
46.6000 969.2455
46.7278 969.0000
47.1000 968.2852
47.2489 968.0000
47.6000 967.3275
47.7714 967.0000
48.1000 966.3723
48.2954 966.0000
48.6000 965.4197
48.8209 965.0000
49.1000 964.4696
49.3478 964.0000
49.6000 963.5221
49.8762 963.0000
50.1000 962.5770
50.4061 962.0000
50.6000 961.6345
50.9375 961.0000
51.1000 960.6946
51.4704 960.0000
51.6000 959.7571
52.0049 959.0000
52.1000 958.8221
52.5408 958.0000
52.6000 957.8896
53.0783 957.0000
53.1000 956.9596
53.6000 956.0321
53.6174 956.0000
54.1000 955.1071
54.1580 955.0000
54.6000 954.1845
54.7002 954.0000
55.1000 953.2643
55.2440 953.0000
55.6000 952.3465
55.7893 952.0000
56.1000 951.4312
56.3362 951.0000
56.6000 950.5183
56.8846 950.0000
57.1000 949.6078
57.4346 949.0000
57.6000 948.6996
57.9862 948.0000
58.1000 947.7938
58.5393 947.0000
58.6000 946.8903
59.0940 946.0000
59.1000 945.9892
59.6000 945.0904
59.6504 945.0000
60.1000 944.1939
60.2084 944.0000
60.6000 943.2996
60.7680 943.0000
61.1000 942.4077
61.3291 942.0000
61.6000 941.5179
61.8918 941.0000
62.1000 940.6304
62.4560 940.0000
62.6000 939.7451
63.0219 939.0000
63.1000 938.8620
63.5892 938.0000
63.6000 937.9810
64.1000 937.1022
64.1583 937.0000
64.6000 936.2255
64.7289 936.0000
65.1000 935.3509
65.3011 935.0000
65.6000 934.4784
65.8748 934.0000
66.1000 933.6080
66.4500 933.0000
66.6000 932.7396
67.0268 932.0000
67.1000 931.8732
67.6000 931.0087
67.6051 931.0000
68.1000 930.1463
68.1850 930.0000
68.6000 929.2858
68.7664 929.0000
69.1000 928.4272
69.3493 928.0000
69.6000 927.5704
69.9336 927.0000
70.1000 926.7156
70.5194 926.0000
70.6000 925.8625
71.1000 925.0113
71.1067 925.0000
71.6000 924.1619
71.6955 924.0000
72.1000 923.3142
72.2857 923.0000
72.6000 922.4683
72.8773 922.0000
73.1000 921.6240
73.4703 921.0000
73.6000 920.7814
74.0646 920.0000
74.1000 919.9405
74.6000 919.1012
74.6604 919.0000
75.1000 918.2634
75.2575 918.0000
75.6000 917.4273
75.8559 917.0000
76.1000 916.5926
76.4556 916.0000
76.6000 915.7594
77.0566 915.0000
77.1000 914.9277
77.6000 914.0975
77.6588 914.0000
78.1000 913.2686
78.2623 913.0000
78.6000 912.4411
78.8670 912.0000
79.1000 911.6150
79.4728 911.0000
79.6000 910.7902
80.0797 910.0000
80.1000 909.9666
80.6000 909.1443
80.6879 909.0000
81.1000 908.3232
81.2971 908.0000
81.6000 907.5034
81.9074 907.0000
82.1000 906.6846
82.5187 906.0000
82.6000 905.8670
83.1000 905.0505
83.1309 905.0000
83.6000 904.2350
83.7443 904.0000
84.1000 903.4205
84.3585 903.0000
84.6000 902.6071
84.9736 902.0000
85.1000 901.7946
85.5895 901.0000
85.6000 900.9830
86.1000 900.1723
86.2064 900.0000
86.6000 899.3625
86.8240 899.0000
86.4552 899.6000
86.5000 899.5274
86.6000 899.3655
86.7000 899.2036
86.7640 899.1000
86.8000 899.0418
86.9000 898.8800
87.0000 898.7182
87.0731 898.6000
87.1000 898.5565
87.2000 898.3948
87.3000 898.2332
87.3824 898.1000
87.4000 898.0715
87.5000 897.9099
87.6000 897.7483
87.6918 897.6000
87.7000 897.5868
87.8000 897.4253
87.9000 897.2638
88.0000 897.1023
88.0014 897.1000
88.1000 896.9409
88.2000 896.7795
88.3000 896.6181
88.3112 896.6000
88.4000 896.4568
88.5000 896.2955
88.6000 896.1342
88.6212 896.1000
88.7000 895.9729
88.8000 895.8117
88.9000 895.6505
88.9313 895.6000
89.0000 895.4893
89.1000 895.3282
89.2000 895.1670
89.2416 895.1000
89.3000 895.0059
89.4000 894.8449
89.5000 894.6838
89.5520 894.6000
89.6000 894.5228
89.7000 894.3618
89.8000 894.2008
89.8626 894.1000
89.9000 894.0399
90.0000 893.8789
90.1000 893.7180
90.1734 893.6000
90.2000 893.5571
90.3000 893.3963
90.4000 893.2355
90.4842 893.1000
90.5000 893.0746
90.6000 892.9139
90.7000 892.7531
90.7952 892.6000
90.8000 892.5923
90.9000 892.4316
91.0000 892.2709
91.1000 892.1102
91.1064 892.1000
91.2000 891.9496
91.3000 891.7889
91.4000 891.6283
91.4176 891.6000
91.5000 891.4677
91.6000 891.3071
91.7000 891.1466
91.7290 891.1000
91.8000 890.9860
91.9000 890.8255
92.0000 890.6650
92.0405 890.6000
92.1000 890.5045
92.2000 890.3440
92.3000 890.1836
92.3521 890.1000
92.4000 890.0231
92.5000 889.8627
92.6000 889.7023
92.6638 889.6000
92.7000 889.5419
92.8000 889.3816
92.9000 889.2212
92.9756 889.1000
93.0000 889.0609
93.1000 888.9006
93.2000 888.7403
93.2875 888.6000
93.3000 888.5800
93.4000 888.4197
93.5000 888.2594
93.5995 888.1000
93.6000 888.0992
93.7000 887.9390
93.8000 887.7787
93.9000 887.6185
93.9116 887.6000
94.0000 887.4583
94.1000 887.2982
94.2000 887.1380
94.2237 887.1000
94.3000 886.9778
94.4000 886.8177
94.5000 886.6576
94.5360 886.6000
94.6000 886.4974
94.7000 886.3373
94.8000 886.1772
94.8482 886.1000
94.9000 886.0172
95.0000 885.8571
95.1000 885.6970
95.1606 885.6000
95.2000 885.5369
95.3000 885.3769
95.4000 885.2169
95.4730 885.1000
95.5000 885.0568
95.6000 884.8968
95.7000 884.7368
95.7855 884.6000
95.8000 884.5768
95.9000 884.4168
96.0000 884.2568
96.0980 884.1000
96.1000 884.0968
96.2000 883.9368
96.3000 883.7769
96.4000 883.6169
96.4106 883.6000
96.5000 883.4570
96.6000 883.2970
96.7000 883.1371
96.7232 883.1000
96.8000 882.9771
96.9000 882.8172
97.0000 882.6573
97.0358 882.6000
97.1000 882.4973
97.2000 882.3374
97.3000 882.1775
97.3485 882.1000
97.4000 882.0176
97.5000 881.8577
97.6000 881.6978
97.6611 881.6000
97.7000 881.5379
97.8000 881.3780
97.9000 881.2181
97.9738 881.1000
98.0000 881.0582
98.1000 880.8983
98.2000 880.7384
98.2865 880.6000
98.3000 880.5785
98.4000 880.4186
98.5000 880.2587
98.5993 880.1000
98.6000 880.0988
98.7000 879.9389
98.8000 879.7790
98.9000 879.6191
98.9120 879.6000
99.0000 879.4593
99.1000 879.2994
99.2000 879.1395
99.2247 879.1000
99.3000 878.9796
99.4000 878.8197
99.5000 878.6598
99.5374 878.6000
99.6000 878.4999
99.7000 878.3400
99.8000 878.1801
99.8501 878.1000
99.9000 878.0202
100.0000 877.8602
100.1000 877.7003
100.1627 877.6000
100.2000 877.5404
100.3000 877.3805
100.4000 877.2206
100.4754 877.1000
100.5000 877.0606
100.6000 876.9007
100.7000 876.7407
100.7880 876.6000
100.8000 876.5808
100.9000 876.4208
101.0000 876.2609
101.1000 876.1009
101.1006 876.1000
101.2000 875.9409
101.3000 875.7809
101.4000 875.6209
101.4131 875.6000
101.5000 875.4609
101.6000 875.3009
101.7000 875.1409
101.7256 875.1000
101.8000 874.9809
101.9000 874.8209
102.0000 874.6608
102.0380 874.6000
102.1000 874.5008
102.2000 874.3407
102.3000 874.1807
102.3504 874.1000
102.4000 874.0206
102.5000 873.8605
102.6000 873.7004
102.6627 873.6000
102.7000 873.5403
102.8000 873.3802
102.9000 873.2200
102.9749 873.1000
103.0000 873.0599
103.1000 872.8997
103.2000 872.7396
103.2871 872.6000
103.3000 872.5794
103.4000 872.4192
103.5000 872.2590
103.5992 872.1000
103.6000 872.0987
103.7000 871.9385
103.8000 871.7783
103.9000 871.6180
103.9112 871.6000
104.0000 871.4577
104.1000 871.2974
104.2000 871.1371
104.2232 871.1000
104.3000 870.9768
104.4000 870.8165
104.5000 870.6561
104.5350 870.6000
104.6000 870.4957
104.7000 870.3354
104.8000 870.1750
104.8467 870.1000
104.9000 870.0145
105.0000 869.8541
105.1000 869.6937
105.1584 869.6000
105.2000 869.5332
105.3000 869.3727
105.4000 869.2122
105.4699 869.1000
105.5000 869.0517
105.6000 868.8911
105.7000 868.7306
105.7813 868.6000
105.8000 868.5700
105.9000 868.4094
106.0000 868.2487
106.0926 868.1000
106.1000 868.0881
106.2000 867.9274
106.3000 867.7668
106.4000 867.6060
106.4038 867.6000
106.5000 867.4453
106.6000 867.2846
106.7000 867.1238
106.7148 867.1000
106.8000 866.9630
106.9000 866.8022
107.0000 866.6414
107.0257 866.6000
107.1000 866.4805
107.2000 866.3196
107.3000 866.1587
107.3365 866.1000
107.4000 865.9978
107.5000 865.8368
107.6000 865.6759
107.6471 865.6000
107.7000 865.5149
107.8000 865.3538
107.9000 865.1928
107.9576 865.1000
108.0000 865.0317
108.1000 864.8706
108.2000 864.7095
108.2679 864.6000
108.3000 864.5483
108.4000 864.3871
108.5000 864.2259
108.5781 864.1000
108.6000 864.0647
108.7000 863.9034
108.8000 863.7421
108.8881 863.6000
108.9000 863.5808
109.0000 863.4195
109.1000 863.2581
109.1980 863.1000
109.2000 863.0967
109.3000 862.9353
109.4000 862.7738
109.5000 862.6123
109.5076 862.6000
109.6000 862.4508
109.7000 862.2892
109.8000 862.1277
109.8171 862.1000
109.9000 861.9661
110.0000 861.8044
110.1000 861.6427
110.1264 861.6000
110.2000 861.4810
110.3000 861.3193
110.4000 861.1575
110.4356 861.1000
110.5000 860.9957
110.6000 860.8339
110.7000 860.6720
110.7445 860.6000
110.8000 860.5102
110.9000 860.3482
111.0000 860.1863
111.0532 860.1000
111.1000 860.0243
111.2000 859.8622
111.3000 859.7002
111.3618 859.6000
111.4000 859.5381
111.5000 859.3759
111.6000 859.2138
111.6701 859.1000
111.7000 859.0516
111.8000 858.8893
111.9000 858.7270
111.9783 858.6000
112.0000 858.5647
112.1000 858.4024
112.2000 858.2400
112.2862 858.1000
112.3000 858.0776
112.4000 857.9151
112.5000 857.7526
112.5939 857.6000
112.6000 857.5901
112.7000 857.4275
112.8000 857.2649
112.9000 857.1023
112.9014 857.1000
113.0000 856.9396
113.1000 856.7768
113.2000 856.6141
113.2086 856.6000
113.3000 856.4513
113.4000 856.2884
113.5000 856.1255
113.5157 856.1000
113.6000 855.9626
113.7000 855.7997
113.8000 855.6366
113.8225 855.6000
113.9000 855.4736
114.0000 855.3105
114.1000 855.1474
114.1290 855.1000
114.2000 854.9842
114.3000 854.8210
114.4000 854.6577
114.4354 854.6000
114.5000 854.4944
114.6000 854.3311
114.7000 854.1677
114.7414 854.1000
114.8000 854.0043
114.9000 853.8408
115.0000 853.6773
115.0472 853.6000
115.1000 853.5137
115.2000 853.3501
115.3000 853.1865
115.3528 853.1000
115.4000 853.0228
115.5000 852.8590
115.6000 852.6952
115.6581 852.6000
115.7000 852.5314
115.8000 852.3675
115.9000 852.2036
115.9632 852.1000
116.0000 852.0396
116.1000 851.8756
116.2000 851.7115
116.2680 851.6000
116.3000 851.5474
116.4000 851.3832
116.5000 851.2190
116.5725 851.1000
116.6000 851.0548
116.7000 850.8905
116.8000 850.7261
116.8767 850.6000
116.9000 850.5617
117.0000 850.3972
117.1000 850.2327
117.1807 850.1000
117.2000 850.0682
117.3000 849.9036
117.4000 849.7389
117.4843 849.6000
117.5000 849.5742
117.6000 849.4095
117.7000 849.2447
117.7877 849.1000
117.8000 849.0798
117.9000 848.9149
118.0000 848.7499
118.0909 848.6000
118.1000 848.5849
118.2000 848.4198
118.3000 848.2547
118.3937 848.1000
118.4000 848.0895
118.5000 847.9243
118.6000 847.7590
118.6962 847.6000
118.7000 847.5937
118.8000 847.4283
118.9000 847.2629
118.9984 847.1000
119.0000 847.0974
119.1000 846.9318
119.2000 846.7662
119.3000 846.6006
119.3003 846.6000
119.4000 846.4348
119.5000 846.2691
119.6000 846.1032
119.6020 846.1000
119.7000 845.9374
119.8000 845.7714
119.9000 845.6054
119.9033 845.6000
120.0000 845.4394
120.1000 845.2733
120.2000 845.1071
120.2043 845.1000
120.3000 844.9409
120.4000 844.7746
120.5000 844.6082
120.5049 844.6000
120.6000 844.4418
120.7000 844.2754
120.8000 844.1088
120.8053 844.1000
120.9000 843.9423
121.0000 843.7756
121.1000 843.6089
121.1053 843.6000
121.2000 843.4422
121.3000 843.2753
121.4000 843.1084
121.4051 843.1000
121.5000 842.9415
121.6000 842.7745
121.7000 842.6074
121.7044 842.6000
121.8000 842.4403
121.9000 842.2731
122.0000 842.1059
122.0035 842.1000
122.1000 841.9386
122.2000 841.7712
122.3000 841.6037
122.3022 841.6000
122.4000 841.4362
122.5000 841.2687
122.6000 841.1010
122.6006 841.1000
122.7000 840.9334
122.8000 840.7656
122.8987 840.6000
122.9000 840.5978
123.0000 840.4299
123.1000 840.2619
123.1964 840.1000
123.2000 840.0939
123.3000 839.9258
123.4000 839.7577
123.4937 839.6000
123.5000 839.5895
123.6000 839.4212
123.7000 839.2529
123.7908 839.1000
123.8000 839.0844
123.9000 838.9160
124.0000 838.7474
124.0874 838.6000
124.1000 838.5788
124.2000 838.4101
124.3000 838.2414
124.3837 838.1000
124.4000 838.0726
124.5000 837.9037
124.6000 837.7347
124.6797 837.6000
124.7000 837.5657
124.8000 837.3966
124.9000 837.2274
124.9753 837.1000
125.0000 837.0582
125.1000 836.8889
125.2000 836.7195
125.2705 836.6000
125.3000 836.5501
125.4000 836.3806
125.5000 836.2110
125.5654 836.1000
125.6000 836.0413
125.7000 835.8716
125.8000 835.7018
125.8599 835.6000
125.9000 835.5319
126.0000 835.3620
126.1000 835.1920
126.1541 835.1000
126.2000 835.0219
126.3000 834.8517
126.4000 834.6815
126.4479 834.6000
126.5000 834.5112
126.6000 834.3408
126.7000 834.1704
126.7413 834.1000
126.8000 833.9998
126.9000 833.8292
127.0000 833.6586
127.0343 833.6000
127.1000 833.4878
127.2000 833.3170
127.3000 833.1461
127.3270 833.1000
127.4000 832.9751
127.5000 832.8041
127.6000 832.6329
127.6192 832.6000
127.7000 832.4617
127.8000 832.2904
127.9000 832.1191
127.9111 832.1000
128.0000 831.9477
128.1000 831.7761
128.2000 831.6045
128.2027 831.6000
128.3000 831.4329
128.4000 831.2611
128.4938 831.1000
128.5000 831.0893
128.6000 830.9174
128.7000 830.7454
128.7845 830.6000
128.8000 830.5734
128.9000 830.4012
129.0000 830.2290
129.0749 830.1000
129.1000 830.0567
129.2000 829.8844
129.3000 829.7119
129.3649 829.6000
129.4000 829.5394
129.5000 829.3667
129.6000 829.1941
129.6544 829.1000
129.7000 829.0213
129.8000 828.8484
129.9000 828.6755
129.9436 828.6000
130.0000 828.5024
130.1000 828.3293
130.2000 828.1562
130.2324 828.1000
130.3000 827.9829
130.4000 827.8095
130.5000 827.6361
130.5208 827.6000
130.6000 827.4626
130.7000 827.2890
130.8000 827.1153
130.8088 827.1000
130.9000 826.9415
131.0000 826.7677
131.0964 826.6000
131.1000 826.5937
131.2000 826.4197
131.3000 826.2456
131.3836 826.1000
131.4000 826.0714
131.5000 825.8972
131.6000 825.7228
131.6704 825.6000
131.7000 825.5484
131.8000 825.3738
131.9000 825.1992
131.9568 825.1000
132.0000 825.0245
132.1000 824.8497
132.2000 824.6748
132.2428 824.6000
132.3000 824.4999
132.4000 824.3248
132.5000 824.1497
132.5284 824.1000
132.6000 823.9745
132.7000 823.7991
132.8000 823.6237
132.8135 823.6000
132.9000 823.4482
133.0000 823.2727
133.0983 823.1000
133.1000 823.0970
133.2000 822.9212
133.3000 822.7454
133.3826 822.6000
133.4000 822.5695
133.5000 822.3934
133.6000 822.2173
133.6666 822.1000
133.7000 822.0411
133.8000 821.8648
133.9000 821.6884
133.9501 821.6000
134.0000 821.5120
134.1000 821.3354
134.2000 821.1587
134.2332 821.1000
134.3000 820.9820
134.4000 820.8051
134.5000 820.6282
134.5159 820.6000
134.6000 820.4512
134.7000 820.2741
134.7982 820.1000
134.8000 820.0968
134.9000 819.9195
135.0000 819.7421
135.0801 819.6000
135.1000 819.5646
135.2000 819.3871
135.3000 819.2094
135.3615 819.1000
135.4000 819.0316
135.5000 818.8537
135.6000 818.6758
135.6426 818.6000
135.7000 818.4977
135.8000 818.3196
135.9000 818.1413
135.9232 818.1000
136.0000 817.9630
136.1000 817.7846
136.2000 817.6060
136.2034 817.6000
136.3000 817.4274
136.4000 817.2487
136.4831 817.1000
136.5000 817.0699
136.6000 816.8909
136.7000 816.7119
136.7625 816.6000
136.8000 816.5328
136.9000 816.3536
137.0000 816.1743
137.0414 816.1000
137.1000 815.9949
137.2000 815.8154
137.3000 815.6358
137.3199 815.6000
137.4000 815.4561
137.5000 815.2763
137.5980 815.1000
137.6000 815.0964
137.7000 814.9164
137.8000 814.7363
137.8757 814.6000
137.9000 814.5561
138.0000 814.3759
138.1000 814.1955
138.1529 814.1000
138.2000 814.0150
138.3000 813.8344
138.4000 813.6537
138.4297 813.6000
138.5000 813.4729
138.6000 813.2920
138.7000 813.1110
138.7061 813.1000
138.8000 812.9299
138.9000 812.7487
138.9820 812.6000
139.0000 812.5674
139.1000 812.3860
139.2000 812.2045
139.2576 812.1000
139.3000 812.0229
139.4000 811.8412
139.5000 811.6594
139.5327 811.6000
139.6000 811.4775
139.7000 811.2955
139.8000 811.1133
139.8073 811.1000
139.9000 810.9311
140.0000 810.7488
140.0816 810.6000
140.1000 810.5664
140.2000 810.3838
140.3000 810.2012
140.3554 810.1000
140.4000 810.0184
140.5000 809.8356
140.6000 809.6526
140.6288 809.6000
140.7000 809.4696
140.8000 809.2864
140.9000 809.1031
140.9017 809.1000
141.0000 808.9198
141.1000 808.7363
141.1742 808.6000
141.2000 808.5527
141.3000 808.3690
141.4000 808.1852
141.4463 808.1000
141.5000 808.0013
141.6000 807.8173
141.7000 807.6331
141.7180 807.6000
141.8000 807.4489
141.9000 807.2646
141.9892 807.1000
142.0000 807.0801
142.1000 806.8956
142.2000 806.7109
142.2600 806.6000
142.3000 806.5261
142.4000 806.3413
142.5000 806.1563
142.5304 806.1000
142.6000 805.9712
142.7000 805.7860
142.8000 805.6006
142.8003 805.6000
142.9000 805.4152
143.0000 805.2297
143.0698 805.1000
143.1000 805.0440
143.2000 804.8583
143.3000 804.6724
143.3389 804.6000
143.4000 804.4864
143.5000 804.3003
143.6000 804.1141
143.6076 804.1000
143.7000 803.9278
143.8000 803.7414
143.8758 803.6000
143.9000 803.5548
144.0000 803.3682
144.1000 803.1814
144.1436 803.1000
144.2000 802.9946
144.3000 802.8076
144.4000 802.6205
144.4109 802.6000
144.5000 802.4333
144.6000 802.2459
144.6779 802.1000
144.7000 802.0585
144.8000 801.8709
144.9000 801.6833
144.9443 801.6000
145.0000 801.4955
145.1000 801.3076
145.2000 801.1196
145.2104 801.1000
145.3000 800.9315
145.4000 800.7432
145.4760 800.6000
145.5000 800.5549
145.6000 800.3664
145.7000 800.1778
145.7412 800.1000
145.8000 799.9891
145.9000 799.8003
146.0000 799.6114
146.0060 799.6000
146.1000 799.4223
146.2000 799.2332
146.2704 799.1000
146.3000 799.0439
146.4000 798.8545
146.5000 798.6650
146.5343 798.6000
146.6000 798.4753
146.7000 798.2856
146.7977 798.1000
146.8000 798.0957
146.9000 797.9057
147.0000 797.7156
147.0608 797.6000
147.1000 797.5254
147.2000 797.3351
147.3000 797.1446
147.3234 797.1000
147.4000 796.9540
147.5000 796.7634
147.5856 796.6000
147.6000 796.5725
147.7000 796.3816
147.8000 796.1906
147.8474 796.1000
147.9000 795.9994
148.0000 795.8081
148.1000 795.6167
148.1087 795.6000
148.2000 795.4251
148.3000 795.2335
148.3696 795.1000
148.4000 795.0417
148.5000 794.8498
148.6000 794.6578
148.6301 794.6000
148.7000 794.4657
148.8000 794.2734
148.8901 794.1000
148.9000 794.0810
149.0000 793.8885
149.1000 793.6959
149.1498 793.6000
149.2000 793.5032
149.3000 793.3103
149.4000 793.1173
149.4090 793.1000
149.5000 792.9242
149.6000 792.7310
149.6677 792.6000
149.7000 792.5376
149.8000 792.3441
149.9000 792.1505
149.9261 792.1000
150.0000 791.9568
150.1000 791.7629
150.1840 791.6000
150.2000 791.5690
150.3000 791.3749
150.4000 791.1806
150.4415 791.1000
150.5000 790.9863
150.6000 790.7918
150.6986 790.6000
150.7000 790.5972
150.8000 790.4025
150.9000 790.2076
150.9552 790.1000
151.0000 790.0127
151.1000 789.8176
151.2000 789.6223
151.2114 789.6000
151.3000 789.4270
151.4000 789.2315
151.4672 789.1000
151.5000 789.0359
151.6000 788.8402
151.7000 788.6443
151.7226 788.6000
151.8000 788.4483
151.9000 788.2522
151.9776 788.1000
152.0000 788.0560
152.1000 787.8596
152.2000 787.6631
152.2321 787.6000
152.3000 787.4665
152.4000 787.2697
152.4862 787.1000
152.5000 787.0728
152.6000 786.8758
152.7000 786.6787
152.7399 786.6000
152.8000 786.4814
152.9000 786.2840
152.9932 786.1000
153.0000 786.0865
153.1000 785.8889
153.2000 785.6911
153.2460 785.6000
153.3000 785.4932
153.4000 785.2951
153.4985 785.1000
153.5000 785.0970
153.6000 784.8987
153.7000 784.7002
153.7505 784.6000
153.8000 784.5017
153.9000 784.3030
154.0000 784.1041
154.0021 784.1000
154.1000 783.9052
154.2000 783.7061
154.2533 783.6000
154.3000 783.5069
154.4000 783.3075
154.5000 783.1080
154.5040 783.1000
154.6000 782.9084
154.7000 782.7087
154.7544 782.6000
154.8000 782.5088
154.9000 782.3088
155.0000 782.1086
155.0043 782.1000
155.1000 781.9084
155.2000 781.7080
155.2538 781.6000
155.3000 781.5074
155.4000 781.3067
155.5000 781.1059
155.5030 781.1000
155.6000 780.9050
155.7000 780.7039
155.7516 780.6000
155.8000 780.5027
155.9000 780.3013
155.9999 780.1000
156.0000 780.0999
156.1000 779.8983
156.2000 779.6965
156.2478 779.6000
156.3000 779.4946
156.4000 779.2926
156.4953 779.1000
156.5000 779.0904
156.6000 778.8881
156.7000 778.6857
156.7423 778.6000
156.8000 778.4832
156.9000 778.2805
156.9890 778.1000
157.0000 778.0776
157.1000 777.8747
157.2000 777.6715
157.2352 777.6000
157.3000 777.4683
157.4000 777.2649
157.4810 777.1000
157.5000 777.0614
157.6000 776.8577
157.7000 776.6539
157.7265 776.6000
157.8000 776.4500
157.9000 776.2459
157.9715 776.1000
158.0000 776.0417
158.1000 775.8374
158.2000 775.6329
158.2161 775.6000
158.3000 775.4283
158.4000 775.2235
158.4603 775.1000
158.5000 775.0186
158.6000 774.8136
158.7000 774.6084
158.7041 774.6000
158.8000 774.4031
158.9000 774.1976
158.9475 774.1000
159.0000 773.9920
159.1000 773.7863
159.1905 773.6000
159.2000 773.5804
159.3000 773.3744
159.4000 773.1683
159.4331 773.1000
159.5000 772.9620
159.6000 772.7555
159.6753 772.6000
159.7000 772.5490
159.8000 772.3422
159.9000 772.1354
159.9171 772.1000
160.0000 771.9284
160.1000 771.7212
160.1585 771.6000
160.2000 771.5139
160.3000 771.3065
160.3995 771.1000
160.4000 771.0990
160.5000 770.8912
160.6000 770.6834
160.6401 770.6000
160.7000 770.4754
160.8000 770.2673
160.8803 770.1000
160.9000 770.0590
161.0000 769.8506
161.1000 769.6420
161.1201 769.6000
161.2000 769.4333
161.3000 769.2244
161.3595 769.1000
161.4000 769.0154
161.5000 768.8063
161.5986 768.6000
161.6000 768.5970
161.7000 768.3876
161.8000 768.1780
161.8372 768.1000
161.9000 767.9683
162.0000 767.7584
162.0754 767.6000
162.1000 767.5484
162.2000 767.3383
162.3000 767.1280
162.3133 767.1000
162.4000 766.9175
162.5000 766.7069
162.5507 766.6000
162.6000 766.4962
162.7000 766.2853
162.7878 766.1000
162.8000 766.0743
162.9000 765.8631
163.0000 765.6518
163.0245 765.6000
163.1000 765.4404
163.2000 765.2288
163.2608 765.1000
163.3000 765.0170
163.4000 764.8051
163.4967 764.6000
163.5000 764.5930
163.6000 764.3808
163.7000 764.1685
163.7322 764.1000
163.8000 763.9560
163.9000 763.7434
163.9674 763.6000
164.0000 763.5306
164.1000 763.3177
164.2000 763.1046
164.2021 763.1000
164.3000 762.8913
164.4000 762.6780
164.4365 762.6000
164.5000 762.4644
164.6000 762.2508
164.6705 762.1000
164.7000 762.0369
164.8000 761.8230
164.9000 761.6088
164.9041 761.6000
165.0000 761.3946
165.1000 761.1801
165.1373 761.1000
165.2000 760.9656
165.3000 760.7508
165.3702 760.6000
165.4000 760.5360
165.5000 760.3209
165.6000 760.1058
165.6027 760.1000
165.7000 759.8904
165.8000 759.6750
165.8348 759.6000
165.9000 759.4593
166.0000 759.2436
166.0665 759.1000
166.1000 759.0276
166.2000 758.8116
166.2978 758.6000
166.3000 758.5953
166.4000 758.3790
166.5000 758.1624
166.5288 758.1000
166.6000 757.9457
166.7000 757.7289
166.7594 757.6000
166.8000 757.5119
166.9000 757.2948
166.9896 757.1000
167.0000 757.0775
167.1000 756.8600
167.2000 756.6424
167.2195 756.6000
167.3000 756.4247
167.4000 756.2068
167.4490 756.1000
167.5000 755.9887
167.6000 755.7705
167.6781 755.6000
167.7000 755.5521
167.8000 755.3336
167.9000 755.1149
167.9068 755.1000
168.0000 754.8961
168.1000 754.6771
168.1352 754.6000
168.2000 754.4580
168.3000 754.2387
168.3632 754.1000
168.4000 754.0193
168.5000 753.7997
168.5909 753.6000
168.6000 753.5799
168.7000 753.3600
168.8000 753.1399
168.8181 753.1000
168.9000 752.9197
169.0000 752.6994
169.0451 752.6000
169.1000 752.4788
169.2000 752.2581
169.2716 752.1000
169.3000 752.0373
169.4000 751.8163
169.4978 751.6000
169.5000 751.5951
169.6000 751.3738
169.7000 751.1524
169.7236 751.1000
169.8000 750.9307
169.9000 750.7090
169.9491 750.6000
170.0000 750.4870
170.1000 750.2649
170.1742 750.1000
170.2000 750.0427
170.3000 749.8203
170.3990 749.6000
170.4000 749.5977
170.5000 749.3750
170.6000 749.1521
170.6234 749.1000
170.7000 748.9290
170.8000 748.7058
170.8474 748.6000
170.9000 748.4825
171.0000 748.2590
171.0711 748.1000
171.1000 748.0353
171.2000 747.8115
171.2944 747.6000
171.3000 747.5875
171.4000 747.3633
171.5000 747.1390
171.5174 747.1000
171.6000 746.9145
171.7000 746.6899
171.7400 746.6000
171.8000 746.4651
171.9000 746.2402
171.9623 746.1000
172.0000 746.0151
172.1000 745.7898
172.1842 745.6000
172.2000 745.5644
172.3000 745.3388
172.4000 745.1130
172.4058 745.1000
172.5000 744.8871
172.6000 744.6611
172.6270 744.6000
172.7000 744.4348
172.8000 744.2084
172.8479 744.1000
172.9000 743.9819
173.0000 743.7552
173.0684 743.6000
173.1000 743.5283
173.2000 743.3013
173.2886 743.1000
173.3000 743.0741
173.4000 742.8467
173.5000 742.6192
173.5084 742.6000
173.6000 742.3915
173.7000 742.1636
173.7279 742.1000
173.8000 741.9356
173.9000 741.7074
173.9471 741.6000
174.0000 741.4791
174.1000 741.2506
174.1659 741.1000
174.2000 741.0220
174.3000 740.7931
174.3843 740.6000
174.4000 740.5641
174.5000 740.3350
174.6000 740.1057
174.6025 740.1000
174.7000 739.8762
174.8000 739.6465
174.8203 739.6000
174.9000 739.4167
175.0000 739.1868
175.0377 739.1000
175.1000 738.9566
175.2000 738.7263
175.2548 738.6000
175.3000 738.4959
175.4000 738.2652
175.4716 738.1000
175.5000 738.0344
175.6000 737.8035
175.6880 737.6000
175.7000 737.5724
175.8000 737.3411
175.9000 737.1096
175.9041 737.1000
176.0000 736.8780
176.1000 736.6462
176.1199 736.6000
176.2000 736.4143
176.3000 736.1821
176.3354 736.1000
176.4000 735.9499
176.5000 735.7174
176.5505 735.6000
176.6000 735.4848
176.7000 735.2520
176.7652 735.1000
176.8000 735.0190
176.9000 734.7859
176.9797 734.6000
177.0000 734.5526
177.1000 734.3192
177.1938 734.1000
177.2000 734.0856
177.3000 733.8518
177.4000 733.6178
177.4076 733.6000
177.5000 733.3837
177.6000 733.1494
177.6211 733.1000
177.7000 732.9150
177.8000 732.6803
177.8342 732.6000
177.9000 732.4456
178.0000 732.2106
178.0470 732.1000
178.1000 731.9755
178.2000 731.7402
178.2595 731.6000
178.3000 731.5047
178.4000 731.2691
178.4717 731.1000
178.5000 731.0333
178.6000 730.7973
178.6835 730.6000
178.7000 730.5611
178.8000 730.3248
178.8951 730.1000
178.9000 730.0884
179.0000 729.8517
179.1000 729.6149
179.1063 729.6000
179.2000 729.3779
179.3000 729.1407
179.3172 729.1000
179.4000 728.9034
179.5000 728.6659
179.5277 728.6000
179.6000 728.4282
179.7000 728.1904
179.7380 728.1000
179.8000 727.9524
179.9000 727.7142
179.9479 727.6000
180.0000 727.4758
180.1000 727.2373
180.1575 727.1000
180.2000 726.9986
180.3000 726.7597
180.3668 726.6000
180.4000 726.5207
180.5000 726.2815
180.5758 726.1000
180.6000 726.0421
180.7000 725.8026
180.7845 725.6000
180.8000 725.5628
180.9000 725.3229
180.9929 725.1000
181.0000 725.0829
181.1000 724.8426
181.2000 724.6022
181.2009 724.6000
181.3000 724.3616
181.4000 724.1208
181.4087 724.1000
181.5000 723.8799
181.6000 723.6388
181.6161 723.6000
181.7000 723.3975
181.8000 723.1561
181.8232 723.1000
181.9000 722.9144
182.0000 722.6726
182.0300 722.6000
182.1000 722.4307
182.2000 722.1885
182.2365 722.1000
182.3000 721.9462
182.4000 721.7037
182.4427 721.6000
182.5000 721.4610
182.6000 721.2182
182.6486 721.1000
182.7000 720.9752
182.8000 720.7320
182.8542 720.6000
182.9000 720.4886
183.0000 720.2451
183.0595 720.1000
183.1000 720.0013
183.2000 719.7574
183.2645 719.6000
183.3000 719.5134
183.4000 719.2691
183.4692 719.1000
183.5000 719.0247
183.6000 718.7801
183.6736 718.6000
183.7000 718.5353
183.8000 718.2904
183.8777 718.1000
183.9000 718.0453
184.0000 717.8000
184.0815 717.6000
184.1000 717.5545
184.2000 717.3089
184.2850 717.1000
184.3000 717.0630
184.4000 716.8170
184.4882 716.6000
184.5000 716.5708
184.6000 716.3245
184.6911 716.1000
184.7000 716.0779
184.8000 715.8312
184.8937 715.6000
184.9000 715.5843
185.0000 715.3373
185.0960 715.1000
185.1000 715.0900
185.2000 714.8426
185.2980 714.6000
185.3000 714.5950
185.4000 714.3472
185.4997 714.1000
185.5000 714.0993
185.6000 713.8511
185.7000 713.6028
185.7011 713.6000
185.8000 713.3543
185.9000 713.1057
185.9023 713.1000
186.0000 712.8568
186.1000 712.6078
186.1031 712.6000
186.2000 712.3586
186.3000 712.1092
186.3037 712.1000
186.4000 711.8596
186.5000 711.6099
186.5040 711.6000
186.6000 711.3600
186.7000 711.1099
186.7039 711.1000
186.8000 710.8596
186.9000 710.6091
186.9036 710.6000
187.0000 710.3585
187.1000 710.1077
187.1031 710.1000
187.2000 709.8567
187.3000 709.6055
187.3022 709.6000
187.4000 709.3541
187.5000 709.1026
187.5010 709.1000
187.6000 708.8509
187.6996 708.6000
187.7000 708.5990
187.8000 708.3469
187.8979 708.1000
187.9000 708.0946
188.0000 707.8422
188.0959 707.6000
188.1000 707.5896
188.2000 707.3367
188.2936 707.1000
188.3000 707.0838
188.4000 706.8306
188.4910 706.6000
188.5000 706.5772
188.6000 706.3237
188.6882 706.1000
188.7000 706.0700
188.8000 705.8161
188.8850 705.6000
188.9000 705.5620
189.0000 705.3077
189.0816 705.1000
189.1000 705.0533
189.2000 704.7987
189.2780 704.6000
189.3000 704.5438
189.4000 704.2889
189.4740 704.1000
189.5000 704.0337
189.6000 703.7783
189.6698 703.6000
189.7000 703.5228
189.8000 703.2670
189.8653 703.1000
189.9000 703.0111
190.0000 702.7550
190.0605 702.6000
190.1000 702.4988
190.2000 702.2423
190.2554 702.1000
190.3000 701.9857
190.4000 701.7288
190.4501 701.6000
190.5000 701.4718
190.6000 701.2146
190.6445 701.1000
190.7000 700.9572
190.8000 700.6997
190.8387 700.6000
190.9000 700.4419
191.0000 700.1840
191.0325 700.1000
191.1000 699.9259
191.2000 699.6676
191.2261 699.6000
191.3000 699.4091
191.4000 699.1504
191.4195 699.1000
191.5000 698.8915
191.6000 698.6325
191.6125 698.6000
191.7000 698.3732
191.8000 698.1138
191.8053 698.1000
191.9000 697.8542
191.9979 697.6000
192.0000 697.5944
192.1000 697.3345
192.1901 697.1000
192.2000 697.0743
192.3000 696.8139
192.3821 696.6000
192.4000 696.5534
192.5000 696.2927
192.5738 696.1000
192.6000 696.0318
192.7000 695.7707
192.7653 695.6000
192.8000 695.5094
192.9000 695.2479
192.9565 695.1000
193.0000 694.9863
193.1000 694.7244
193.1475 694.6000
193.2000 694.4624
193.3000 694.2002
193.3382 694.1000
193.4000 693.9378
193.5000 693.6752
193.5286 693.6000
193.6000 693.4124
193.7000 693.1494
193.7188 693.1000
193.8000 692.8862
193.9000 692.6229
193.9087 692.6000
194.0000 692.3594
194.0983 692.1000
194.1000 692.0956
194.2000 691.8317
194.2877 691.6000
194.3000 691.5676
194.4000 691.3033
194.4769 691.1000
194.5000 691.0388
194.6000 690.7742
194.6658 690.6000
194.7000 690.5093
194.8000 690.2443
194.8544 690.1000
194.9000 689.9790
195.0000 689.7136
195.0428 689.6000
195.1000 689.4480
195.2000 689.1822
195.2309 689.1000
195.3000 688.9162
195.4000 688.6500
195.4188 688.6000
195.5000 688.3836
195.6000 688.1170
195.6064 688.1000
195.7000 687.8503
195.7938 687.6000
195.8000 687.5833
195.9000 687.3162
195.9809 687.1000
196.0000 687.0489
196.1000 686.7813
196.1677 686.6000
196.2000 686.5136
196.3000 686.2457
196.3544 686.1000
196.4000 685.9776
196.5000 685.7093
196.5407 685.6000
196.6000 685.4409
196.7000 685.1722
196.7268 685.1000
196.8000 684.9033
196.9000 684.6343
196.9127 684.6000
197.0000 684.3650
197.0984 684.1000
197.1000 684.0956
197.2000 683.8260
197.2837 683.6000
197.3000 683.5561
197.4000 683.2861
197.4689 683.1000
197.5000 683.0159
197.6000 682.7455
197.6538 682.6000
197.7000 682.4749
197.8000 682.2041
197.8384 682.1000
197.9000 681.9331
198.0000 681.6620
198.0228 681.6000
198.1000 681.3906
198.2000 681.1190
198.2070 681.1000
198.3000 680.8473
198.3909 680.6000
198.4000 680.5753
198.5000 680.3032
198.5746 680.1000
198.6000 680.0309
198.7000 679.7583
198.7581 679.6000
198.8000 679.4856
198.9000 679.2127
198.9413 679.1000
199.0000 678.9396
199.1000 678.6663
199.1242 678.6000
199.2000 678.3928
199.3000 678.1191
199.3070 678.1000
199.4000 677.8452
199.4895 677.6000
199.5000 677.5711
199.6000 677.2968
199.6717 677.1000
199.7000 677.0224
199.8000 676.7477
199.8537 676.6000
199.9000 676.4728
200.0000 676.1978
200.0355 676.1000
200.1000 675.9225
200.2000 675.6470
200.2171 675.6000
200.3000 675.3714
200.3984 675.1000
200.4000 675.0956
200.5000 674.8195
200.5795 674.6000
200.6000 674.5433
200.7000 674.2668
200.7603 674.1000
200.8000 673.9902
200.9000 673.7134
200.9409 673.6000
201.0000 673.4364
201.1000 673.1591
201.1213 673.1000
201.2000 672.8817
201.3000 672.6041
201.3015 672.6000
201.4000 672.3263
201.4814 672.1000
201.5000 672.0483
201.6000 671.7701
201.6611 671.6000
201.7000 671.4917
201.8000 671.2131
201.8406 671.1000
201.9335 670.8401
